,Subject_ID,Time,PPG,HR,HRV
0,19.0,0.0,0.0001137606171466,,
1,19.0,0.01001001001001,0.0954166362723554,,
2,19.0,0.02002002002002,0.1669554589668624,,
3,19.0,0.03003003003003,0.2660047050889401,,
4,19.0,0.04004004004004,0.3542747497317996,,
5,19.0,0.05005005005005,0.4263729147153356,,
6,19.0,0.06006006006006,0.5051474211478866,,
7,19.0,0.07007007007007,0.5654036736415217,,
8,19.0,0.08008008008008,0.6230684667474179,,
9,19.0,0.09009009009009,0.6638319455402747,,
10,19.0,0.1001001001001,0.7101564560909264,,
11,19.0,0.1101101101101101,0.7415162184341231,,
12,19.0,0.1201201201201201,0.7661350206469254,,
13,19.0,0.1301301301301301,0.7685189423327441,,
14,19.0,0.1401401401401401,0.7753341027276024,,
15,19.0,0.1501501501501501,0.7702343038654635,,
16,19.0,0.1601601601601601,0.7602104788472358,,
17,19.0,0.1701701701701701,0.7310495065238364,,
18,19.0,0.1801801801801801,0.7112385097747429,,
19,19.0,0.1901901901901901,0.6745329481859429,,
20,19.0,0.2002002002002001,0.6307776479128564,,
21,19.0,0.2102102102102102,0.5931163979318401,,
22,19.0,0.2202202202202202,0.5385218542372294,,
23,19.0,0.2302302302302302,0.495296828416448,,
24,19.0,0.2402402402402402,0.4347924574196092,,
25,19.0,0.2502502502502503,0.4002204418974328,,
26,19.0,0.2602602602602603,0.341522018085699,,
27,19.0,0.2702702702702703,0.2939759496857759,,
28,19.0,0.2802802802802803,0.2459596518323936,,
29,19.0,0.2902902902902903,0.2063344664004395,,
30,19.0,0.3003003003003003,0.1665262821208693,,
31,19.0,0.3103103103103103,0.1339046296535954,,
32,19.0,0.3203203203203203,0.098516592218141,,
33,19.0,0.3303303303303303,0.073502973901556,,
34,19.0,0.3403403403403403,0.0548978389379449,,
35,19.0,0.3503503503503503,0.0339462716614397,,
36,19.0,0.3603603603603603,0.0239057020629337,,
37,19.0,0.3703703703703703,0.0147261841840535,,
38,19.0,0.3803803803803803,0.0015536865757465,,
39,19.0,0.3903903903903903,0.008306998923228,,
40,19.0,0.4004004004004003,0.0082139556039051,,
41,19.0,0.4104104104104104,5.4893052016024576e-05,,
42,19.0,0.4204204204204204,-0.0042233309048139,,
43,19.0,0.4304304304304304,-0.001672188882256,,
44,19.0,0.4404404404404404,0.0013400765905228,,
45,19.0,0.4504504504504504,-0.0033771569607149,,
46,19.0,0.4604604604604604,-0.0145160741847268,,
47,19.0,0.4704704704704704,-0.0171253664674373,,
48,19.0,0.4804804804804805,-0.0358642826734985,,
49,19.0,0.4904904904904905,-0.0453196007179262,,
50,19.0,0.5005005005005005,-0.0626882268519527,,
51,19.0,0.5105105105105106,-0.0944395711131515,,
52,19.0,0.5205205205205206,-0.1243337188379437,,
53,19.0,0.5305305305305306,-0.1573126372751634,,
54,19.0,0.5405405405405406,-0.1853020009492012,,
55,19.0,0.5505505505505506,-0.2386057313408331,,
56,19.0,0.5605605605605606,-0.2766714151794556,,
57,19.0,0.5705705705705706,-0.3284916363754898,,
58,19.0,0.5805805805805806,-0.3771045684768465,,
59,19.0,0.5905905905905906,-0.4317080668843259,,
60,19.0,0.6006006006006006,-0.4842053166651398,,
61,19.0,0.6106106106106106,-0.5383378215509769,,
62,19.0,0.6206206206206206,-0.5779088600851572,,
63,19.0,0.6306306306306306,-0.6238066288622974,,
64,19.0,0.6406406406406406,-0.6634891307721563,,
65,19.0,0.6506506506506506,-0.7098088079408115,,
66,19.0,0.6606606606606606,-0.7325202173263051,,
67,19.0,0.6706706706706707,-0.7562101520518116,,
68,19.0,0.6806806806806807,-0.7719805607271316,,
69,19.0,0.6906906906906907,-0.7795319001025669,,
70,19.0,0.7007007007007007,-0.7708407035512147,,
71,19.0,0.7107107107107107,-0.77233191637985,,
72,19.0,0.7207207207207207,-0.7482922066151204,,
73,19.0,0.7307307307307307,-0.7175317726077982,,
74,19.0,0.7407407407407407,-0.6788238229502098,,
75,19.0,0.7507507507507507,-0.6300081174340657,,
76,19.0,0.7607607607607607,-0.5840121731144718,,
77,19.0,0.7707707707707707,-0.5198734037884953,,
78,19.0,0.7807807807807807,-0.4547205357056225,,
79,19.0,0.7907907907907907,-0.3727019232144994,,
80,19.0,0.8008008008008007,-0.2865485408238628,,
81,19.0,0.8108108108108109,-0.1989055360313521,,
82,19.0,0.8208208208208209,-0.1092517975456631,,
83,19.0,0.8308308308308309,-0.011537538674794,,
84,19.0,0.8408408408408409,0.0681602581440969,,
85,19.0,0.8508508508508509,0.1579405410451433,,
86,19.0,0.8608608608608609,0.2487221696626869,,
87,19.0,0.8708708708708709,0.3308201657939834,,
88,19.0,0.8808808808808809,0.4124998347831051,,
89,19.0,0.8908908908908909,0.4791802900808156,,
90,19.0,0.9009009009009008,0.5406351398709108,,
91,19.0,0.9109109109109108,0.61351377855073,,
92,19.0,0.9209209209209208,0.6641272181487471,,
93,19.0,0.9309309309309308,0.6965050463290275,,
94,19.0,0.9409409409409408,0.7272081072563439,,
95,19.0,0.950950950950951,0.7539135934885384,,
96,19.0,0.960960960960961,0.7815376771644962,,
97,19.0,0.970970970970971,0.7778652282580802,,
98,19.0,0.980980980980981,0.7771833020808947,,
99,19.0,0.990990990990991,0.7730639284022933,,
100,19.0,1.001001001001001,0.7451911864518879,,
101,19.0,1.011011011011011,0.7199324897585835,,
102,19.0,1.021021021021021,0.6797100193448503,,
103,19.0,1.031031031031031,0.6378920830807358,,
104,19.0,1.0410410410410411,0.5979672641691329,,
105,19.0,1.0510510510510511,0.555425543184439,,
106,19.0,1.0610610610610611,0.5094251533860716,,
107,19.0,1.0710710710710711,0.4613131569983183,,
108,19.0,1.0810810810810811,0.4031214216004893,,
109,19.0,1.0910910910910911,0.353293190111711,,
110,19.0,1.1011011011011012,0.2989607217269512,,
111,19.0,1.1111111111111112,0.2614253226916129,,
112,19.0,1.1211211211211212,0.2210474879340548,,
113,19.0,1.1311311311311312,0.1767158186858777,,
114,19.0,1.1411411411411412,0.1288121811650696,,
115,19.0,1.1511511511511512,0.0956014627652549,,
116,19.0,1.1611611611611612,0.0707685172769264,,
117,19.0,1.1711711711711712,0.0468347901133106,,
118,19.0,1.1811811811811812,0.0411109194345414,,
119,19.0,1.1911911911911912,0.0313948799432608,,
120,19.0,1.2012012012012012,0.0159784960255692,,
121,19.0,1.2112112112112112,0.0085860946596109,,
122,19.0,1.2212212212212212,0.0044255554733858,,
123,19.0,1.2312312312312312,-0.0056942551837801,,
124,19.0,1.2412412412412412,-0.0120121404035052,,
125,19.0,1.2512512512512513,-0.0001278556943804,,
126,19.0,1.2612612612612613,-0.002666618210874,,
127,19.0,1.2712712712712713,0.0046425779051293,,
128,19.0,1.2812812812812813,-0.0036322380755117,,
129,19.0,1.2912912912912913,-0.0109230994983589,,
130,19.0,1.3013013013013013,-0.0205946152807861,,
131,19.0,1.3113113113113113,-0.0257567010513582,,
132,19.0,1.3213213213213213,-0.0500656645039358,,
133,19.0,1.3313313313313313,-0.0625686710071364,,
134,19.0,1.3413413413413413,-0.0833731087379473,,
135,19.0,1.351351351351351,-0.1186148768771695,,
136,19.0,1.361361361361361,-0.14886717910051,,
137,19.0,1.371371371371371,-0.1801479216846924,,
138,19.0,1.3813813813813811,-0.2282825728811649,,
139,19.0,1.3913913913913911,-0.275083024071962,,
140,19.0,1.4014014014014011,-0.3167574441297784,,
141,19.0,1.4114114114114114,-0.3558208386640107,,
142,19.0,1.4214214214214214,-0.4120240644888247,,
143,19.0,1.4314314314314314,-0.4635041971312111,,
144,19.0,1.4414414414414414,-0.5229433297184265,,
145,19.0,1.4514514514514514,-0.5623108413347763,,
146,19.0,1.4614614614614614,-0.6087981345075022,,
147,19.0,1.4714714714714714,-0.6452263097883681,,
148,19.0,1.4814814814814814,-0.6905364068761165,,
149,19.0,1.4914914914914914,-0.7265189596795723,,
150,19.0,1.5015015015015014,-0.7537814431571067,,
151,19.0,1.5115115115115114,-0.7591400338188323,,
152,19.0,1.5215215215215214,-0.7757569986954947,,
153,19.0,1.5315315315315314,-0.7755532054156462,,
154,19.0,1.5415415415415414,-0.7685615585362432,,
155,19.0,1.5515515515515514,-0.7520806035621274,,
156,19.0,1.5615615615615617,-0.7278749089712037,,
157,19.0,1.5715715715715717,-0.7004587462692591,,
158,19.0,1.5815815815815817,-0.6433615205935523,,
159,19.0,1.5915915915915917,-0.5956185947309939,,
160,19.0,1.6016016016016017,-0.5309573997375666,,
161,19.0,1.6116116116116117,-0.4699661174983608,,
162,19.0,1.6216216216216215,-0.3854088553833093,,
163,19.0,1.6316316316316315,-0.3079818042588634,,
164,19.0,1.6416416416416415,-0.2259695605163816,,
165,19.0,1.6516516516516515,-0.132769440356401,,
166,19.0,1.6616616616616615,-0.0454386252143639,,
167,19.0,1.6716716716716715,0.0420832033304876,,
168,19.0,1.6816816816816818,0.134367077097063,,
169,19.0,1.6916916916916918,0.2231115112265604,,
170,19.0,1.7017017017017018,0.3121293663749888,,
171,19.0,1.7117117117117118,0.3885635059257834,,
172,19.0,1.7217217217217218,0.4645484473012208,,
173,19.0,1.7317317317317318,0.5290790541478712,,
174,19.0,1.7417417417417418,0.5932582297831919,,
175,19.0,1.7517517517517518,0.6441187425762184,,
176,19.0,1.7617617617617618,0.6953151542129364,,
177,19.0,1.7717717717717718,0.7269077928985591,,
178,19.0,1.7817817817817818,0.7541280681363327,,
179,19.0,1.7917917917917918,0.7711948780399125,,
180,19.0,1.8018018018018016,0.782499896571127,,
181,19.0,1.811811811811812,0.7856094330038416,,
182,19.0,1.8218218218218216,0.7668832508181658,,
183,19.0,1.831831831831832,0.7557989143897945,,
184,19.0,1.8418418418418416,0.7269156077385832,,
185,19.0,1.851851851851852,0.694127075771988,,
186,19.0,1.8618618618618616,0.6595355700106668,,
187,19.0,1.871871871871872,0.6228587093347842,,
188,19.0,1.8818818818818817,0.576238330708412,,
189,19.0,1.891891891891892,0.5120240938282317,,
190,19.0,1.901901901901902,0.4732108155497003,,
191,19.0,1.911911911911912,0.4257600824280056,,
192,19.0,1.921921921921922,0.3598967094537156,,
193,19.0,1.931931931931932,0.3114589715181027,,
194,19.0,1.941941941941942,0.2738752039496323,,
195,19.0,1.951951951951952,0.2264019102129466,,
196,19.0,1.961961961961962,0.1938122048418966,,
197,19.0,1.971971971971972,0.1460370392300556,,
198,19.0,1.981981981981982,0.1135714419134687,,
199,19.0,1.991991991991992,0.0837329766668471,,
200,19.0,2.002002002002002,0.0636937060840638,,
201,19.0,2.012012012012012,0.0446595994740769,,
202,19.0,2.022022022022022,0.0244756166080155,,
203,19.0,2.032032032032032,0.017493324335803,,
204,19.0,2.042042042042042,0.0130817863932677,,
205,19.0,2.052052052052052,0.0021531091071245,,
206,19.0,2.062062062062062,0.0103826335254803,,
207,19.0,2.072072072072072,-0.0135164661897687,,
208,19.0,2.0820820820820822,-0.0023309092223223,,
209,19.0,2.092092092092092,0.0036144351761368,,
210,19.0,2.1021021021021022,-0.0001542255927735,,
211,19.0,2.112112112112112,-0.0046695034183161,,
212,19.0,2.1221221221221223,4.616628791124979e-05,,
213,19.0,2.1321321321321323,-0.0082517362675384,,
214,19.0,2.1421421421421423,-0.020831911873602,,
215,19.0,2.1521521521521523,-0.0300230789983692,,
216,19.0,2.1621621621621623,-0.0558705677953431,,
217,19.0,2.1721721721721723,-0.0835050035421916,,
218,19.0,2.1821821821821823,-0.112585733713663,,
219,19.0,2.1921921921921923,-0.1301434341684453,,
220,19.0,2.2022022022022023,-0.1829261472674604,,
221,19.0,2.2122122122122123,-0.2131275777499011,,
222,19.0,2.2222222222222223,-0.2611380329181719,,
223,19.0,2.2322322322322323,-0.3157813962185502,,
224,19.0,2.2422422422422423,-0.3550019593677722,,
225,19.0,2.2522522522522523,-0.4081726228729893,,
226,19.0,2.2622622622622623,-0.44451458942638,,
227,19.0,2.2722722722722724,-0.509994736948438,,
228,19.0,2.2822822822822824,-0.5556248589461663,,
229,19.0,2.2922922922922924,-0.6040653063298501,,
230,19.0,2.3023023023023024,-0.645563890880431,,
231,19.0,2.3123123123123124,-0.6786155128734713,,
232,19.0,2.3223223223223224,-0.7220128966911887,,
233,19.0,2.3323323323323324,-0.7400004069573856,,
234,19.0,2.3423423423423424,-0.7707517617112053,,
235,19.0,2.3523523523523524,-0.7688310364782144,,
236,19.0,2.3623623623623624,-0.7781483007375986,,
237,19.0,2.3723723723723724,-0.7774288319161381,,
238,19.0,2.3823823823823824,-0.7586092479051327,,
239,19.0,2.3923923923923924,-0.7312902121818341,,
240,19.0,2.4024024024024024,-0.7096602233832582,,
241,19.0,2.4124124124124124,-0.6578334974290291,,
242,19.0,2.4224224224224224,-0.6042581992782784,,
243,19.0,2.4324324324324325,-0.5498290647797327,,
244,19.0,2.4424424424424425,-0.4790129682449052,,
245,19.0,2.4524524524524525,-0.4092535388870611,,
246,19.0,2.4624624624624625,-0.3323709609100757,,
247,19.0,2.4724724724724725,-0.2360034625287016,,
248,19.0,2.4824824824824825,-0.1556223986869531,,
249,19.0,2.4924924924924925,-0.0736498269440815,,
250,19.0,2.5025025025025025,0.0207226243371479,,
251,19.0,2.5125125125125125,0.1208495043525434,,
252,19.0,2.5225225225225225,0.2005223670463814,,
253,19.0,2.5325325325325325,0.2899687315827589,,
254,19.0,2.5425425425425425,0.3653562420704989,,
255,19.0,2.5525525525525525,0.4470130540107987,,
256,19.0,2.5625625625625625,0.5155299359610417,,
257,19.0,2.5725725725725725,0.5744772931032741,,
258,19.0,2.5825825825825826,0.6289530137971895,,
259,19.0,2.592592592592593,0.6791517777966622,,
260,19.0,2.6026026026026026,0.7222381232332816,,
261,19.0,2.612612612612613,0.7455437839627286,,
262,19.0,2.6226226226226226,0.7655974218929114,,
263,19.0,2.6326326326326326,0.7799433727489444,,
264,19.0,2.6426426426426426,0.7719748684255856,,
265,19.0,2.6526526526526526,0.766448949864657,,
266,19.0,2.6626626626626626,0.7493228674014569,,
267,19.0,2.6726726726726726,0.729463011065863,,
268,19.0,2.6826826826826826,0.703163662503445,,
269,19.0,2.6926926926926926,0.6694645274853775,,
270,19.0,2.702702702702702,0.6265983863505828,,
271,19.0,2.7127127127127126,0.5820885876858563,,
272,19.0,2.722722722722722,0.5275713404440908,,
273,19.0,2.7327327327327327,0.4818751639737706,,
274,19.0,2.7427427427427427,0.4305163873169303,,
275,19.0,2.7527527527527527,0.382194497819307,,
276,19.0,2.7627627627627627,0.322953753375534,,
277,19.0,2.7727727727727727,0.2778238355463235,,
278,19.0,2.7827827827827827,0.2433313507972715,,
279,19.0,2.7927927927927927,0.1986172335928142,,
280,19.0,2.8028028028028027,0.1581464543067575,,
281,19.0,2.8128128128128127,0.1153435587963342,,
282,19.0,2.8228228228228227,0.093568066220712,,
283,19.0,2.8328328328328327,0.0733717191749044,,
284,19.0,2.8428428428428427,0.0480040157103493,,
285,19.0,2.8528528528528527,0.0310365459852804,,
286,19.0,2.8628628628628627,0.0203772930248679,,
287,19.0,2.8728728728728727,0.0097906335128896,,
288,19.0,2.8828828828828827,0.008434182844564,,
289,19.0,2.8928928928928928,-0.0028703082277867,,
290,19.0,2.9029029029029028,0.000652802652216,,
291,19.0,2.9129129129129128,0.0085764838551574,,
292,19.0,2.9229229229229228,-0.0049658564230663,,
293,19.0,2.932932932932933,0.0003493633864116,,
294,19.0,2.942942942942943,-0.0097023670697716,,
295,19.0,2.952952952952953,0.005122552479485,,
296,19.0,2.962962962962963,-0.0195818877784259,,
297,19.0,2.972972972972973,-0.0193266791893836,,
298,19.0,2.982982982982983,-0.0375729671401378,,
299,19.0,2.992992992992993,-0.0532697805906468,,
300,19.0,3.003003003003003,-0.0819471071142722,,
301,19.0,3.013013013013013,-0.0983154660015249,,
302,19.0,3.023023023023023,-0.1284707749001513,,
303,19.0,3.033033033033033,-0.1684598974286671,,
304,19.0,3.043043043043043,-0.2070161261240977,,
305,19.0,3.053053053053053,-0.2506651285106234,,
306,19.0,3.063063063063063,-0.3015265777230914,,
307,19.0,3.073073073073073,-0.3456106056894329,,
308,19.0,3.083083083083083,-0.3919765281000147,,
309,19.0,3.093093093093093,-0.4487255149635959,,
310,19.0,3.103103103103103,-0.4894179203664092,,
311,19.0,3.113113113113113,-0.5323340680500731,,
312,19.0,3.123123123123123,-0.5863910307392621,,
313,19.0,3.133133133133133,-0.627340496512428,,
314,19.0,3.143143143143143,-0.6747910763262925,,
315,19.0,3.153153153153153,-0.71080613230934,,
316,19.0,3.163163163163163,-0.7344290709701911,,
317,19.0,3.173173173173173,-0.7585846112346822,,
318,19.0,3.183183183183183,-0.7671635000389826,,
319,19.0,3.193193193193193,-0.7738504962231569,,
320,19.0,3.203203203203203,-0.7729061746986611,,
321,19.0,3.2132132132132134,-0.7725217055014676,,
322,19.0,3.2232232232232234,-0.7377316621870548,,
323,19.0,3.2332332332332334,-0.7129355486776608,,
324,19.0,3.2432432432432434,-0.6743061862339669,,
325,19.0,3.253253253253253,-0.6232721327306388,,
326,19.0,3.2632632632632634,-0.5636969265127036,,
327,19.0,3.273273273273273,-0.5008567308741216,,
328,19.0,3.2832832832832834,-0.4112769606871062,,
329,19.0,3.293293293293293,-0.3507651968176039,,
330,19.0,3.3033033033033035,-0.2662932242095271,,
331,19.0,3.313313313313313,-0.1831637997896102,,
332,19.0,3.3233233233233235,-0.0916717234976135,,
333,19.0,3.333333333333333,-5.318791406141031e-05,,
334,19.0,3.3433433433433435,0.0999302806544737,,
335,19.0,3.353353353353353,0.1858927743930557,,
336,19.0,3.3633633633633635,0.2662768332473033,,
337,19.0,3.373373373373373,0.3525513754361025,,
338,19.0,3.3833833833833835,0.4274197507503147,,
339,19.0,3.393393393393393,0.4982729259882103,,
340,19.0,3.4034034034034035,0.5490049835308732,,
341,19.0,3.413413413413413,0.6159394570453955,,
342,19.0,3.4234234234234235,0.6685186065110553,,
343,19.0,3.433433433433433,0.7057888105369642,,
344,19.0,3.443443443443444,0.7376362451057301,,
345,19.0,3.4534534534534536,0.7574621188159852,,
346,19.0,3.463463463463464,0.7704186877144912,,
347,19.0,3.4734734734734736,0.7880228328546164,,
348,19.0,3.483483483483484,0.7686988580652402,,
349,19.0,3.4934934934934936,0.7568935700050523,,
350,19.0,3.503503503503504,0.7337669894589911,,
351,19.0,3.5135135135135136,0.7066044935789211,,
352,19.0,3.523523523523524,0.6734785290655326,,
353,19.0,3.5335335335335336,0.6389279379011606,,
354,19.0,3.543543543543544,0.5866237595354551,,
355,19.0,3.5535535535535536,0.5430553439867587,,
356,19.0,3.563563563563564,0.4930818672288759,,
357,19.0,3.5735735735735736,0.4391134656399932,,
358,19.0,3.583583583583584,0.3979126421092612,,
359,19.0,3.5935935935935936,0.3426762124927209,,
360,19.0,3.603603603603604,0.3013139424170983,,
361,19.0,3.6136136136136137,0.2473856704910375,,
362,19.0,3.623623623623624,0.2086910297231823,,
363,19.0,3.6336336336336337,0.1724456161693314,,
364,19.0,3.643643643643644,0.1337532296877853,,
365,19.0,3.6536536536536537,0.0979208957552564,,
366,19.0,3.663663663663664,0.0835015481258971,,
367,19.0,3.6736736736736737,0.0526669414889437,,
368,19.0,3.683683683683684,0.0385306898516813,,
369,19.0,3.6936936936936937,0.0197194461699026,,
370,19.0,3.703703703703704,0.0046617685377897,,
371,19.0,3.7137137137137137,0.0054653514461026,,
372,19.0,3.723723723723724,-0.0020758510117063,,
373,19.0,3.7337337337337337,0.0019479110342247,,
374,19.0,3.743743743743744,0.0075452966647068,,
375,19.0,3.7537537537537538,0.0014922417830697,,
376,19.0,3.763763763763764,0.0005684251611406,,
377,19.0,3.7737737737737738,-0.0073100040477651,,
378,19.0,3.783783783783784,-0.0157156939964319,,
379,19.0,3.793793793793794,-0.0148497922172216,,
380,19.0,3.803803803803804,-0.0166766726525151,,
381,19.0,3.813813813813814,-0.0312382461449708,,
382,19.0,3.823823823823824,-0.0400794131968829,,
383,19.0,3.833833833833834,-0.0660223744828125,,
384,19.0,3.843843843843844,-0.0920352327537565,,
385,19.0,3.853853853853854,-0.1254861535602934,,
386,19.0,3.863863863863864,-0.1604870648232422,,
387,19.0,3.873873873873874,-0.1878859459951949,,
388,19.0,3.883883883883884,-0.2416000913253148,,
389,19.0,3.893893893893894,-0.2795351011127366,,
390,19.0,3.903903903903904,-0.3188159966407461,,
391,19.0,3.913913913913914,-0.3802263165835558,,
392,19.0,3.923923923923924,-0.4307368320866914,,
393,19.0,3.933933933933934,-0.4864340342787743,,
394,19.0,3.943943943943944,-0.5340320619663019,,
395,19.0,3.953953953953954,-0.5750143143381006,,
396,19.0,3.963963963963964,-0.6268183855050539,,
397,19.0,3.973973973973974,-0.6701523196835293,,
398,19.0,3.983983983983984,-0.6989308676759619,,
399,19.0,3.993993993993994,-0.7278486602858917,,
400,19.0,4.004004004004004,-0.7522421667710181,,
401,19.0,4.014014014014014,-0.7718186897539374,,
402,19.0,4.024024024024024,-0.7779527871591209,,
403,19.0,4.034034034034034,-0.776482958830958,,
404,19.0,4.044044044044044,-0.7747741700173981,,
405,19.0,4.054054054054054,-0.7464918897768714,,
406,19.0,4.064064064064064,-0.7081367613917787,,
407,19.0,4.074074074074074,-0.6809471991233527,,
408,19.0,4.084084084084084,-0.6328426903924858,,
409,19.0,4.094094094094094,-0.578747709827086,,
410,19.0,4.104104104104104,-0.5092637568251599,,
411,19.0,4.114114114114114,-0.4502563961989829,,
412,19.0,4.124124124124124,-0.3608423642412207,,
413,19.0,4.134134134134134,-0.288465355819594,,
414,19.0,4.144144144144144,-0.1972302708152186,,
415,19.0,4.1541541541541545,-0.1225233475499381,,
416,19.0,4.1641641641641645,-0.0314616785997417,,
417,19.0,4.174174174174175,0.0690733202007699,,
418,19.0,4.1841841841841845,0.160140050161281,,
419,19.0,4.1941941941941945,0.2508565960669912,,
420,19.0,4.2042042042042045,0.3257565848893147,,
421,19.0,4.214214214214215,0.4094479243559233,,
422,19.0,4.2242242242242245,0.4848663083522544,,
423,19.0,4.2342342342342345,0.5381093203958487,,
424,19.0,4.2442442442442445,0.6104347068150232,,
425,19.0,4.254254254254255,0.6665129491633272,,
426,19.0,4.2642642642642645,0.70380415015242,,
427,19.0,4.2742742742742745,0.7338561445857701,,
428,19.0,4.2842842842842845,0.7534549398619113,,
429,19.0,4.294294294294295,0.7799814726230804,,
430,19.0,4.3043043043043046,0.7727924538079607,,
431,19.0,4.314314314314315,0.7717045561329475,,
432,19.0,4.324324324324325,0.7592460072210764,,
433,19.0,4.334334334334335,0.7465025420059993,,
434,19.0,4.344344344344345,0.7083853398899057,,
435,19.0,4.354354354354355,0.6889748620088658,,
436,19.0,4.364364364364365,0.6417589355457034,,
437,19.0,4.374374374374375,0.6026218578146265,,
438,19.0,4.384384384384385,0.5654914372280735,,
439,19.0,4.394394394394395,0.5084702942304117,,
440,19.0,4.404404404404405,0.4567002606926804,,
441,19.0,4.414414414414415,0.4033132741987159,,
442,19.0,4.424424424424425,0.3476112662079993,,
443,19.0,4.434434434434435,0.3052029654447725,,
444,19.0,4.444444444444445,0.2614373438937604,,
445,19.0,4.454454454454455,0.2133205443595365,,
446,19.0,4.464464464464465,0.1801460697476909,,
447,19.0,4.474474474474475,0.1335172363711649,,
448,19.0,4.484484484484485,0.1067691427877951,,
449,19.0,4.494494494494495,0.0845537680499326,,
450,19.0,4.504504504504505,0.0463457409831038,,
451,19.0,4.514514514514515,0.0374180290125312,,
452,19.0,4.524524524524525,0.0274436670236283,,
453,19.0,4.534534534534535,0.0146671835426423,,
454,19.0,4.544544544544545,0.0047208526897299,,
455,19.0,4.554554554554555,0.0069158751485311,,
456,19.0,4.564564564564565,0.0038962016914157,,
457,19.0,4.574574574574575,0.0080517907960918,,
458,19.0,4.584584584584585,0.001965364156818,,
459,19.0,4.594594594594595,0.0002341606595205,,
460,19.0,4.604604604604605,-0.0065280132823809,,
461,19.0,4.614614614614615,-0.0088111495175753,,
462,19.0,4.624624624624625,-0.004452550275982,,
463,19.0,4.634634634634635,-0.0262094802315492,,
464,19.0,4.644644644644645,-0.023194636738791,,
465,19.0,4.654654654654655,-0.0430892799560149,,
466,19.0,4.664664664664665,-0.0637200963917562,,
467,19.0,4.674674674674675,-0.0834588364720763,,
468,19.0,4.684684684684685,-0.1160853645622819,,
469,19.0,4.694694694694695,-0.1509726612319091,,
470,19.0,4.704704704704705,-0.1744856789042986,,
471,19.0,4.714714714714715,-0.2267857388710551,,
472,19.0,4.724724724724725,-0.2758418282658254,,
473,19.0,4.734734734734735,-0.3181057723668126,,
474,19.0,4.744744744744745,-0.3612151775439663,,
475,19.0,4.754754754754755,-0.4305624711566914,,
476,19.0,4.764764764764765,-0.4786667429384056,,
477,19.0,4.774774774774775,-0.5124830918442442,,
478,19.0,4.784784784784785,-0.5702952638171798,,
479,19.0,4.794794794794795,-0.6183933710012043,,
480,19.0,4.804804804804805,-0.656858217226574,,
481,19.0,4.814814814814815,-0.7036648718063124,,
482,19.0,4.824824824824825,-0.7277201658715664,,
483,19.0,4.834834834834835,-0.7526013099830587,,
484,19.0,4.844844844844845,-0.7744262651114829,,
485,19.0,4.854854854854855,-0.7856628223223246,,
486,19.0,4.864864864864865,-0.7816505405179055,,
487,19.0,4.874874874874875,-0.7686455279623078,,
488,19.0,4.884884884884885,-0.74724829578138,,
489,19.0,4.894894894894895,-0.7384741237160422,,
490,19.0,4.904904904904905,-0.6909611204441761,,
491,19.0,4.914914914914915,-0.6496712059794609,,
492,19.0,4.924924924924925,-0.5901440025152507,,
493,19.0,4.934934934934935,-0.531662116631998,,
494,19.0,4.944944944944945,-0.4734172348098045,,
495,19.0,4.954954954954955,-0.3936359189117094,,
496,19.0,4.964964964964965,-0.3193400261705138,,
497,19.0,4.974974974974975,-0.2241088530815813,,
498,19.0,4.984984984984985,-0.138885307668535,,
499,19.0,4.994994994994995,-0.0507700330765561,,
500,19.0,5.005005005005005,0.0402102367395106,,
501,19.0,5.015015015015015,0.1336871831807834,,
502,19.0,5.025025025025025,0.2200474574410938,,
503,19.0,5.035035035035035,0.3109763172932002,,
504,19.0,5.045045045045045,0.3882318561452575,,
505,19.0,5.055055055055055,0.4810283401341478,,
506,19.0,5.065065065065065,0.5350249213100714,,
507,19.0,5.075075075075075,0.6052263004802689,,
508,19.0,5.085085085085085,0.6542671464690162,,
509,19.0,5.095095095095095,0.6886352852750713,,
510,19.0,5.105105105105105,0.7245315782648322,,
511,19.0,5.115115115115115,0.7512388055459036,,
512,19.0,5.125125125125125,0.7669618790248077,,
513,19.0,5.135135135135135,0.7775711269724508,,
514,19.0,5.145145145145145,0.7772829821034376,,
515,19.0,5.155155155155155,0.771347502747876,,
516,19.0,5.165165165165165,0.757598228018779,,
517,19.0,5.175175175175175,0.731051812095179,,
518,19.0,5.185185185185185,0.6919617700306816,,
519,19.0,5.195195195195195,0.6633374477599503,,
520,19.0,5.205205205205205,0.6085226121597901,,
521,19.0,5.215215215215215,0.5685035313533039,,
522,19.0,5.225225225225225,0.5116327346315739,,
523,19.0,5.235235235235235,0.4634591281363138,,
524,19.0,5.245245245245245,0.4162908829273478,,
525,19.0,5.255255255255255,0.368258902661925,,
526,19.0,5.265265265265265,0.3201353135482304,,
527,19.0,5.275275275275275,0.2684844048653356,,
528,19.0,5.285285285285285,0.229412773449836,,
529,19.0,5.295295295295295,0.1787628511759045,,
530,19.0,5.305305305305305,0.1558603229723192,,
531,19.0,5.315315315315315,0.1188006303201827,,
532,19.0,5.325325325325325,0.0906684545267023,,
533,19.0,5.335335335335335,0.063501229203639,,
534,19.0,5.345345345345345,0.0526684063113275,,
535,19.0,5.355355355355355,0.0275127310803246,,
536,19.0,5.365365365365365,0.0153418168058045,,
537,19.0,5.375375375375375,0.0103053430797329,,
538,19.0,5.385385385385385,-0.000541200346624,,
539,19.0,5.395395395395395,0.0063187690940934,,
540,19.0,5.405405405405405,0.0057451049740145,,
541,19.0,5.415415415415415,0.004872422893601,,
542,19.0,5.425425425425425,-0.0056900275612633,,
543,19.0,5.435435435435435,-0.0034126558647685,,
544,19.0,5.445445445445445,-0.003803236659827,,
545,19.0,5.455455455455455,-0.0056277523593441,,
546,19.0,5.465465465465465,-0.0109387212849089,,
547,19.0,5.475475475475475,-0.021530858974408,,
548,19.0,5.485485485485485,-0.0333105305550249,,
549,19.0,5.495495495495495,-0.0554462972734343,,
550,19.0,5.505505505505505,-0.0787825928120006,,
551,19.0,5.515515515515515,-0.0982288026572678,,
552,19.0,5.525525525525525,-0.1404523279237246,,
553,19.0,5.535535535535535,-0.1698695681762538,,
554,19.0,5.545545545545545,-0.2111783565116507,,
555,19.0,5.555555555555555,-0.2568284991644759,,
556,19.0,5.565565565565565,-0.3062498281343798,,
557,19.0,5.575575575575575,-0.3575540273483508,,
558,19.0,5.585585585585585,-0.4075612152935088,,
559,19.0,5.595595595595595,-0.4613919051159836,,
560,19.0,5.605605605605605,-0.5045865929567074,,
561,19.0,5.615615615615615,-0.5507014974902246,,
562,19.0,5.625625625625625,-0.6040477615215926,,
563,19.0,5.635635635635635,-0.6456262527815531,,
564,19.0,5.645645645645645,-0.6891000570391576,,
565,19.0,5.655655655655655,-0.7197487375309263,,
566,19.0,5.665665665665665,-0.746176712970435,,
567,19.0,5.675675675675675,-0.7672907662204456,,
568,19.0,5.685685685685685,-0.7849673423113466,,
569,19.0,5.695695695695696,-0.7786273602748108,,
570,19.0,5.7057057057057055,-0.7756777941442387,,
571,19.0,5.715715715715716,-0.7509052845222922,,
572,19.0,5.7257257257257255,-0.7348996263936701,,
573,19.0,5.735735735735736,-0.6967681995572687,,
574,19.0,5.7457457457457455,-0.6545386491895665,,
575,19.0,5.755755755755756,-0.6132815192133783,,
576,19.0,5.7657657657657655,-0.5474661717461291,,
577,19.0,5.775775775775776,-0.4796117570481335,,
578,19.0,5.7857857857857855,-0.4056851909598331,,
579,19.0,5.795795795795796,-0.333547614076541,,
580,19.0,5.8058058058058055,-0.2441617716912646,,
581,19.0,5.815815815815816,-0.1571473644996412,,
582,19.0,5.8258258258258255,-0.0650546478586877,,
583,19.0,5.835835835835836,0.0215460861451528,,
584,19.0,5.8458458458458455,0.1097599874752165,,
585,19.0,5.855855855855856,0.2027426381041193,,
586,19.0,5.865865865865866,0.2918627573079018,,
587,19.0,5.875875875875876,0.360651286143347,,
588,19.0,5.885885885885886,0.446100947957413,,
589,19.0,5.895895895895896,0.5226858753557295,,
590,19.0,5.905905905905906,0.5765722432133812,,
591,19.0,5.915915915915916,0.6343568864501228,,
592,19.0,5.925925925925926,0.6869106231440152,,
593,19.0,5.935935935935936,0.7233472041978741,,
594,19.0,5.945945945945946,0.745341741913018,,
595,19.0,5.955955955955956,0.7688929007899113,,
596,19.0,5.965965965965966,0.7865086172282546,,
597,19.0,5.975975975975976,0.7811308794630504,,
598,19.0,5.985985985985986,0.7709034712650272,,
599,19.0,5.995995995995996,0.7664648758603192,,
600,19.0,6.006006006006006,0.7305127415074261,,
601,19.0,6.016016016016016,0.70275951772744,,
602,19.0,6.026026026026026,0.6609380477691146,,
603,19.0,6.036036036036036,0.6207300442363181,,
604,19.0,6.046046046046046,0.5844354630910008,,
605,19.0,6.056056056056056,0.5339883138205246,,
606,19.0,6.066066066066066,0.4814682902335146,,
607,19.0,6.076076076076076,0.4421741448564694,,
608,19.0,6.086086086086086,0.3827281583654738,,
609,19.0,6.096096096096096,0.3320164294664559,,
610,19.0,6.106106106106106,0.2797845133521123,,
611,19.0,6.116116116116116,0.2344394757283991,,
612,19.0,6.126126126126126,0.1996982010577335,,
613,19.0,6.136136136136136,0.1537682721417969,,
614,19.0,6.146146146146146,0.1331462129050444,,
615,19.0,6.156156156156156,0.0914513948757779,,
616,19.0,6.166166166166166,0.0694904400101392,,
617,19.0,6.176176176176176,0.0485707068802092,,
618,19.0,6.186186186186186,0.0315414217653179,,
619,19.0,6.196196196196196,0.0211986079893384,,
620,19.0,6.206206206206206,0.0066126470970078,,
621,19.0,6.216216216216216,0.013513386912361,,
622,19.0,6.226226226226226,0.0052614121925047,,
623,19.0,6.236236236236236,-0.0013689094347426,,
624,19.0,6.246246246246246,-0.0082581157767546,,
625,19.0,6.256256256256256,-0.0020302483908211,,
626,19.0,6.266266266266266,0.002027601520991,,
627,19.0,6.276276276276276,-0.0044146245629627,,
628,19.0,6.286286286286286,-0.0012353541598764,,
629,19.0,6.296296296296296,-0.0055575037624244,,
630,19.0,6.306306306306306,-0.022391776235375,,
631,19.0,6.316316316316316,-0.040307010722678,,
632,19.0,6.326326326326326,-0.0488629529425772,,
633,19.0,6.336336336336336,-0.0751945583639625,,
634,19.0,6.346346346346346,-0.0987909473860255,,
635,19.0,6.356356356356356,-0.1327705021449225,,
636,19.0,6.366366366366366,-0.1653323057784844,,
637,19.0,6.376376376376376,-0.1941331782209052,,
638,19.0,6.386386386386386,-0.2497944412378857,,
639,19.0,6.396396396396396,-0.2962263116526841,,
640,19.0,6.406406406406406,-0.3435302855668281,,
641,19.0,6.416416416416417,-0.3956082012435334,,
642,19.0,6.426426426426427,-0.4480927019420849,,
643,19.0,6.436436436436437,-0.4966293265694164,,
644,19.0,6.446446446446447,-0.5476049798857966,,
645,19.0,6.456456456456457,-0.5878115994004696,,
646,19.0,6.466466466466467,-0.6398046188491886,,
647,19.0,6.476476476476477,-0.6901008594044802,,
648,19.0,6.486486486486487,-0.7118706332695036,,
649,19.0,6.496496496496497,-0.7355624120690514,,
650,19.0,6.506506506506507,-0.7621984156287192,,
651,19.0,6.516516516516517,-0.7691294402311843,,
652,19.0,6.526526526526527,-0.7781125241892393,,
653,19.0,6.536536536536537,-0.7791752673163583,,
654,19.0,6.546546546546547,-0.7657457915755189,,
655,19.0,6.556556556556557,-0.7468370427734758,,
656,19.0,6.566566566566567,-0.7119685834629572,,
657,19.0,6.576576576576577,-0.6680990252460576,,
658,19.0,6.586586586586587,-0.6187040383311762,,
659,19.0,6.596596596596597,-0.5573831670899286,,
660,19.0,6.606606606606607,-0.4924951262803439,,
661,19.0,6.616616616616617,-0.4235638993356644,,
662,19.0,6.626626626626627,-0.3473865122078914,,
663,19.0,6.636636636636637,-0.2585863552780469,,
664,19.0,6.646646646646647,-0.1777400588594447,,
665,19.0,6.656656656656657,-0.0825080724119481,,
666,19.0,6.666666666666667,-0.0019326706524574,,
667,19.0,6.676676676676677,0.09435183318631,,
668,19.0,6.686686686686687,0.1775218706293144,,
669,19.0,6.696696696696697,0.2646684674061031,,
670,19.0,6.706706706706707,0.3487817702126904,,
671,19.0,6.716716716716717,0.4283434725766447,,
672,19.0,6.726726726726727,0.4939961625789388,,
673,19.0,6.736736736736737,0.5658779227922636,,
674,19.0,6.746746746746747,0.6151415070127305,,
675,19.0,6.756756756756757,0.6654892432879248,,
676,19.0,6.766766766766767,0.7168823994526128,,
677,19.0,6.776776776776777,0.7323102539058798,,
678,19.0,6.786786786786787,0.7571710470616757,,
679,19.0,6.796796796796797,0.7756562804744139,,
680,19.0,6.806806806806807,0.7754106867022935,,
681,19.0,6.816816816816817,0.7802224625294684,,
682,19.0,6.826826826826827,0.7596542233780615,,
683,19.0,6.836836836836837,0.7368310118077234,,
684,19.0,6.846846846846847,0.7119054315151043,,
685,19.0,6.856856856856857,0.6791628661561127,,
686,19.0,6.866866866866867,0.6345320597474936,,
687,19.0,6.876876876876877,0.5904106998394911,,
688,19.0,6.886886886886887,0.5447557039182194,,
689,19.0,6.896896896896897,0.4974782727029321,,
690,19.0,6.906906906906907,0.4451659154696774,,
691,19.0,6.916916916916917,0.3928275638144198,,
692,19.0,6.926926926926927,0.3510182442747159,,
693,19.0,6.936936936936937,0.2880413130154295,,
694,19.0,6.946946946946947,0.2470351244449931,,
695,19.0,6.956956956956957,0.2119688176430702,,
696,19.0,6.966966966966967,0.1712396334145431,,
697,19.0,6.976976976976977,0.1299244659386768,,
698,19.0,6.986986986986987,0.1055563026127371,,
699,19.0,6.996996996996997,0.0763855321309288,,
700,19.0,7.007007007007007,0.049509229280965,,
701,19.0,7.017017017017017,0.0396605026956581,,
702,19.0,7.027027027027027,0.0235204440020735,,
703,19.0,7.037037037037037,0.0108924130522918,,
704,19.0,7.047047047047047,0.0081629450477258,,
705,19.0,7.057057057057057,0.0009968789452266,,
706,19.0,7.067067067067067,-0.0071990410501729,,
707,19.0,7.077077077077077,0.0051837726613593,,
708,19.0,7.087087087087087,-0.0085447113490232,,
709,19.0,7.097097097097097,-0.0037154455344635,,
710,19.0,7.107107107107107,-0.0032407910148872,,
711,19.0,7.117117117117117,-0.0009062289985277,,
712,19.0,7.127127127127127,-0.015677218141799,,
713,19.0,7.137137137137137,-0.0160549853393161,,
714,19.0,7.147147147147147,-0.0258520287408935,,
715,19.0,7.157157157157157,-0.0463953943416885,,
716,19.0,7.167167167167167,-0.070204771169174,,
717,19.0,7.177177177177177,-0.0890657577348459,,
718,19.0,7.187187187187187,-0.123699021081232,,
719,19.0,7.197197197197197,-0.1679276872962305,,
720,19.0,7.207207207207207,-0.1946695564290761,,
721,19.0,7.217217217217217,-0.2446867910647314,,
722,19.0,7.227227227227227,-0.2906123957866161,,
723,19.0,7.237237237237237,-0.3251841271057539,,
724,19.0,7.247247247247247,-0.3908452101057436,,
725,19.0,7.257257257257257,-0.4326592379888566,,
726,19.0,7.267267267267267,-0.4879372491926071,,
727,19.0,7.277277277277277,-0.536763882098329,,
728,19.0,7.287287287287287,-0.5744356463106151,,
729,19.0,7.297297297297297,-0.6296553375001989,,
730,19.0,7.307307307307307,-0.6664532474291912,,
731,19.0,7.317317317317317,-0.7001247710191322,,
732,19.0,7.327327327327327,-0.7355313704026978,,
733,19.0,7.337337337337337,-0.7555240461381166,,
734,19.0,7.347347347347347,-0.7680896155821726,,
735,19.0,7.357357357357357,-0.7785270174636013,,
736,19.0,7.367367367367367,-0.7741569500441398,,
737,19.0,7.377377377377377,-0.7566668284880396,,
738,19.0,7.387387387387387,-0.7524103466976453,,
739,19.0,7.397397397397397,-0.7217591689503269,,
740,19.0,7.407407407407407,-0.6721456639399822,,
741,19.0,7.4174174174174174,-0.6320875175365038,,
742,19.0,7.4274274274274275,-0.581869948017652,,
743,19.0,7.437437437437437,-0.5183954629863645,,
744,19.0,7.447447447447447,-0.4536495582646481,,
745,19.0,7.4574574574574575,-0.3680585045804584,,
746,19.0,7.4674674674674675,-0.2863062750151379,,
747,19.0,7.477477477477477,-0.2019537033173249,,
748,19.0,7.487487487487487,-0.1063309325958269,,
749,19.0,7.4974974974974975,-0.0245400208010415,,
750,19.0,7.5075075075075075,0.0703512901690533,,
751,19.0,7.517517517517517,0.1627114291869606,,
752,19.0,7.527527527527527,0.2416299187162187,,
753,19.0,7.5375375375375375,0.3247144127033521,,
754,19.0,7.5475475475475475,0.4112467707356514,,
755,19.0,7.557557557557557,0.4796477554829662,,
756,19.0,7.567567567567567,0.545789047149023,,
757,19.0,7.5775775775775776,0.6026504156360041,,
758,19.0,7.587587587587588,0.6701752063638328,,
759,19.0,7.597597597597598,0.6972935051390851,,
760,19.0,7.607607607607608,0.7352689818159861,,
761,19.0,7.617617617617618,0.7645269503333653,,
762,19.0,7.627627627627628,0.7795576592478534,,
763,19.0,7.637637637637638,0.7898241891655946,,
764,19.0,7.647647647647648,0.7841019219832578,,
765,19.0,7.657657657657658,0.7634939516142978,,
766,19.0,7.667667667667668,0.7381506437566937,,
767,19.0,7.677677677677678,0.7177306489711769,,
768,19.0,7.687687687687688,0.6902615353257656,,
769,19.0,7.697697697697698,0.6565096865221471,,
770,19.0,7.707707707707708,0.6004510730067563,,
771,19.0,7.717717717717718,0.5593840283645871,,
772,19.0,7.727727727727728,0.5114100798120728,,
773,19.0,7.737737737737738,0.462364557151073,,
774,19.0,7.747747747747748,0.4016144652046559,,
775,19.0,7.757757757757758,0.3502211512719063,,
776,19.0,7.767767767767768,0.3086091235024815,,
777,19.0,7.777777777777778,0.2604814179820571,,
778,19.0,7.787787787787788,0.2064618866241638,,
779,19.0,7.797797797797798,0.1766814410181887,,
780,19.0,7.807807807807808,0.1421567376580588,,
781,19.0,7.817817817817818,0.1061854583255988,,
782,19.0,7.827827827827828,0.076675026574719,,
783,19.0,7.837837837837838,0.0581918341213879,,
784,19.0,7.847847847847848,0.0403018520769889,,
785,19.0,7.857857857857858,0.0275238368213619,,
786,19.0,7.867867867867868,0.014318173840312,,
787,19.0,7.877877877877878,0.0014046600386129,,
788,19.0,7.887887887887888,0.0023564079138238,,
789,19.0,7.897897897897898,0.0007687658706746,,
790,19.0,7.907907907907908,-0.0076026066657483,,
791,19.0,7.917917917917918,0.0011551786338917,,
792,19.0,7.927927927927928,-0.0027571854760177,,
793,19.0,7.937937937937938,0.0012178901623835,,
794,19.0,7.947947947947948,-0.0050192793236291,,
795,19.0,7.957957957957958,-0.0106945885118904,,
796,19.0,7.967967967967968,-0.0122999394955142,,
797,19.0,7.977977977977978,-0.0215436215353055,,
798,19.0,7.987987987987988,-0.0498517348989159,,
799,19.0,7.997997997997998,-0.0613348390300278,,
800,19.0,8.008008008008009,-0.0893776024830906,,
801,19.0,8.018018018018019,-0.1100566457147419,,
802,19.0,8.028028028028029,-0.1521350874906143,,
803,19.0,8.038038038038039,-0.1849205780892894,,
804,19.0,8.048048048048049,-0.2239525583097268,,
805,19.0,8.058058058058059,-0.2705231628673501,,
806,19.0,8.068068068068069,-0.3062847063697089,,
807,19.0,8.078078078078079,-0.3689245185694446,,
808,19.0,8.088088088088089,-0.4195037534231511,,
809,19.0,8.098098098098099,-0.4618049409415997,,
810,19.0,8.108108108108109,-0.5244503215470475,,
811,19.0,8.118118118118119,-0.570447233273398,,
812,19.0,8.128128128128129,-0.6179706977399012,,
813,19.0,8.138138138138139,-0.6560930867811893,,
814,19.0,8.148148148148149,-0.6908537835330698,,
815,19.0,8.158158158158159,-0.7299404523892064,,
816,19.0,8.168168168168169,-0.7471407079934751,,
817,19.0,8.178178178178179,-0.7696379792168531,,
818,19.0,8.188188188188189,-0.7764945899184396,,
819,19.0,8.198198198198199,-0.7830419920343062,,
820,19.0,8.208208208208209,-0.7650348251288817,,
821,19.0,8.218218218218219,-0.7484164220643924,,
822,19.0,8.228228228228229,-0.7296826030976206,,
823,19.0,8.238238238238239,-0.6910750825585918,,
824,19.0,8.248248248248249,-0.6411919125073733,,
825,19.0,8.258258258258259,-0.5911849090783594,,
826,19.0,8.268268268268269,-0.5278064885983005,,
827,19.0,8.278278278278279,-0.4687727401354229,,
828,19.0,8.288288288288289,-0.3820420678456493,,
829,19.0,8.298298298298299,-0.3151625375247852,,
830,19.0,8.308308308308309,-0.2295922937856574,,
831,19.0,8.318318318318319,-0.1300599518402333,,
832,19.0,8.328328328328329,-0.0443334439070011,,
833,19.0,8.338338338338339,0.0363239283055079,,
834,19.0,8.348348348348349,0.1335055764365856,,
835,19.0,8.358358358358359,0.2284495362533684,,
836,19.0,8.368368368368369,0.3051749269548924,,
837,19.0,8.378378378378379,0.3907907209556459,,
838,19.0,8.388388388388389,0.4661730580507823,,
839,19.0,8.398398398398399,0.5215638736045941,,
840,19.0,8.408408408408409,0.5903979237338538,,
841,19.0,8.418418418418419,0.6500276461629573,,
842,19.0,8.428428428428429,0.6934323926613243,,
843,19.0,8.438438438438439,0.7301273376968747,,
844,19.0,8.448448448448449,0.7590801690628741,,
845,19.0,8.458458458458459,0.7707601140986592,,
846,19.0,8.468468468468469,0.7886457968953955,,
847,19.0,8.478478478478479,0.7715190937493305,,
848,19.0,8.488488488488489,0.7692074925117602,,
849,19.0,8.498498498498499,0.7575825782764035,,
850,19.0,8.508508508508509,0.7288114878543623,,
851,19.0,8.518518518518519,0.6988428887659802,,
852,19.0,8.528528528528529,0.6647280308805416,,
853,19.0,8.538538538538539,0.6133387411022573,,
854,19.0,8.548548548548549,0.5619331894392436,,
855,19.0,8.558558558558559,0.5218501291154195,,
856,19.0,8.568568568568569,0.4670843425539736,,
857,19.0,8.578578578578579,0.4218372615771387,,
858,19.0,8.588588588588589,0.366357151681855,,
859,19.0,8.598598598598599,0.3197566692844814,,
860,19.0,8.608608608608609,0.2768265446558319,,
861,19.0,8.618618618618619,0.2256779262284385,,
862,19.0,8.62862862862863,0.1870000237500177,,
863,19.0,8.63863863863864,0.1497836912027312,,
864,19.0,8.64864864864865,0.1171716075041545,,
865,19.0,8.65865865865866,0.0857417017770411,,
866,19.0,8.66866866866867,0.0636637508063421,,
867,19.0,8.67867867867868,0.0373139991199336,,
868,19.0,8.68868868868869,0.0312920428952102,,
869,19.0,8.6986986986987,0.0216676137369054,,
870,19.0,8.70870870870871,0.0130010563681259,,
871,19.0,8.71871871871872,-0.0010945733952959,,
872,19.0,8.72872872872873,0.0026289848615126,,
873,19.0,8.73873873873874,0.0101393807362502,,
874,19.0,8.74874874874875,0.0053902132480266,,
875,19.0,8.75875875875876,0.0075372935795006,,
876,19.0,8.76876876876877,-0.0046564768529393,,
877,19.0,8.77877877877878,-0.0098173110776545,,
878,19.0,8.78878878878879,-0.0006575965645402,,
879,19.0,8.7987987987988,-0.0051400297561762,,
880,19.0,8.80880880880881,-0.0218072140571489,,
881,19.0,8.81881881881882,-0.0343407212287444,,
882,19.0,8.82882882882883,-0.0507519292444632,,
883,19.0,8.83883883883884,-0.0784368027430397,,
884,19.0,8.84884884884885,-0.1134887266863107,,
885,19.0,8.85885885885886,-0.1364594779550214,,
886,19.0,8.86886886886887,-0.1706961635570738,,
887,19.0,8.87887887887888,-0.2162961510831106,,
888,19.0,8.88888888888889,-0.2650155258196287,,
889,19.0,8.8988988988989,-0.3022244083375825,,
890,19.0,8.90890890890891,-0.3572386857960998,,
891,19.0,8.91891891891892,-0.4072632976158997,,
892,19.0,8.92892892892893,-0.4632163912960106,,
893,19.0,8.93893893893894,-0.5025526098173485,,
894,19.0,8.94894894894895,-0.5604166428021123,,
895,19.0,8.95895895895896,-0.6095882463034374,,
896,19.0,8.96896896896897,-0.6430363929448906,,
897,19.0,8.97897897897898,-0.6837699243371801,,
898,19.0,8.98898898898899,-0.71655839323437,,
899,19.0,8.998998998999,-0.7464745611162098,,
900,19.0,9.00900900900901,-0.7588415449153827,,
901,19.0,9.01901901901902,-0.7833048064663399,,
902,19.0,9.02902902902903,-0.7833176761293611,,
903,19.0,9.03903903903904,-0.767054615075334,,
904,19.0,9.04904904904905,-0.7557517862822655,,
905,19.0,9.05905905905906,-0.7340812017872524,,
906,19.0,9.06906906906907,-0.7069726483507007,,
907,19.0,9.07907907907908,-0.6548290831744827,,
908,19.0,9.08908908908909,-0.617692951372557,,
909,19.0,9.0990990990991,-0.5434409077803409,,
910,19.0,9.10910910910911,-0.4793073507372956,,
911,19.0,9.11911911911912,-0.4127560851357266,,
912,19.0,9.12912912912913,-0.3344147794649465,,
913,19.0,9.13913913913914,-0.2397514696957146,,
914,19.0,9.14914914914915,-0.1572396698451971,,
915,19.0,9.15915915915916,-0.0810861053289336,,
916,19.0,9.16916916916917,0.0219127063567507,,
917,19.0,9.17917917917918,0.1163593523476674,,
918,19.0,9.18918918918919,0.2011814762807421,,
919,19.0,9.1991991991992,0.2843369636965099,,
920,19.0,9.20920920920921,0.3746986998790795,,
921,19.0,9.21921921921922,0.4402761576531672,,
922,19.0,9.22922922922923,0.5102057939282093,,
923,19.0,9.23923923923924,0.5740069155610502,,
924,19.0,9.24924924924925,0.6287624708020969,,
925,19.0,9.25925925925926,0.6750328755986938,,
926,19.0,9.26926926926927,0.7165137881159171,,
927,19.0,9.27927927927928,0.7499586632776839,,
928,19.0,9.28928928928929,0.765506307088128,,
929,19.0,9.2992992992993,0.7848653493077865,,
930,19.0,9.30930930930931,0.7738286233885209,,
931,19.0,9.31931931931932,0.7742524290424503,,
932,19.0,9.32932932932933,0.7558410800355733,,
933,19.0,9.33933933933934,0.7271724055507246,,
934,19.0,9.34934934934935,0.6915711066862291,,
935,19.0,9.35935935935936,0.6589782443884128,,
936,19.0,9.36936936936937,0.6291670857011544,,
937,19.0,9.37937937937938,0.5790883688413134,,
938,19.0,9.38938938938939,0.5259810452884234,,
939,19.0,9.3993993993994,0.4795772894300218,,
940,19.0,9.40940940940941,0.436257532002054,,
941,19.0,9.41941941941942,0.3855143340536392,,
942,19.0,9.42942942942943,0.3267706818865636,,
943,19.0,9.43943943943944,0.2880398888326209,,
944,19.0,9.44944944944945,0.2389930744822114,,
945,19.0,9.45945945945946,0.1961848725588505,,
946,19.0,9.46946946946947,0.1477563220903189,,
947,19.0,9.47947947947948,0.1197534921932069,,
948,19.0,9.48948948948949,0.0896260423696827,,
949,19.0,9.4994994994995,0.0721948241057034,,
950,19.0,9.50950950950951,0.0514938275724606,,
951,19.0,9.51951951951952,0.0340965793106754,,
952,19.0,9.52952952952953,0.0153390068693827,,
953,19.0,9.53953953953954,0.0098577801620896,,
954,19.0,9.54954954954955,0.007029050330878,,
955,19.0,9.55955955955956,0.0022116276322325,,
956,19.0,9.56956956956957,0.0013899064057386,,
957,19.0,9.57957957957958,-0.0026320241066698,,
958,19.0,9.58958958958959,-0.0006513807955997,,
959,19.0,9.5995995995996,-0.0038774129761871,,
960,19.0,9.60960960960961,-0.0101492597530564,,
961,19.0,9.61961961961962,-0.0081066366118383,,
962,19.0,9.62962962962963,-0.0086181962079905,,
963,19.0,9.63963963963964,-0.0274720274952744,,
964,19.0,9.64964964964965,-0.0508240315103819,,
965,19.0,9.65965965965966,-0.0546985257930144,,
966,19.0,9.66966966966967,-0.0824034200837068,,
967,19.0,9.67967967967968,-0.1058217353514029,,
968,19.0,9.68968968968969,-0.1299279141733016,,
969,19.0,9.6996996996997,-0.1726692596986918,,
970,19.0,9.70970970970971,-0.2017924883348382,,
971,19.0,9.71971971971972,-0.2465685953163256,,
972,19.0,9.72972972972973,-0.2871878039191781,,
973,19.0,9.73973973973974,-0.3413844156252629,,
974,19.0,9.74974974974975,-0.3941983832905713,,
975,19.0,9.75975975975976,-0.4397481105568572,,
976,19.0,9.76976976976977,-0.5018064510996398,,
977,19.0,9.77977977977978,-0.5450827304893993,,
978,19.0,9.78978978978979,-0.5937311104827097,,
979,19.0,9.7997997997998,-0.6438074505862023,,
980,19.0,9.80980980980981,-0.6695744026643272,,
981,19.0,9.81981981981982,-0.7073854617917805,,
982,19.0,9.82982982982983,-0.7413097372396226,,
983,19.0,9.83983983983984,-0.7605206507689956,,
984,19.0,9.84984984984985,-0.7763392832035383,,
985,19.0,9.85985985985986,-0.777536396580674,,
986,19.0,9.86986986986987,-0.7697440342394263,,
987,19.0,9.87987987987988,-0.7727239104804301,,
988,19.0,9.88988988988989,-0.7370022113034521,,
989,19.0,9.8998998998999,-0.7113722751897982,,
990,19.0,9.90990990990991,-0.673044762772177,,
991,19.0,9.91991991991992,-0.6119873801549505,,
992,19.0,9.92992992992993,-0.5615751575430616,,
993,19.0,9.93993993993994,-0.5016976667778946,,
994,19.0,9.94994994994995,-0.4263906463734984,,
995,19.0,9.95995995995996,-0.3520668965469488,,
996,19.0,9.96996996996997,-0.2671433744122303,,
997,19.0,9.97997997997998,-0.1687433328207427,,
998,19.0,9.98998998998999,-0.0827494954579912,,
999,19.0,10.0,-0.0012579931231907,,
0,,,,71.0,37.98588026
1,,,,87.0,63.99203399
2,,,,65.0,87.45502852
3,,,,76.0,59.90844847
4,,,,93.0,60.70464529
5,,,,75.0,31.85818104
6,,,,98.0,27.55325512
7,,,,68.0,88.21327519
8,,,,86.0,46.05414594
9,,,,61.0,90.14936228
10,,,,79.0,40.73856427
11,,,,91.0,63.75629742
12,,,,86.0,76.43595811
13,,,,65.0,88.12241627
14,,,,90.0,59.40902284
15,,,,80.0,90.7207735
16,,,,86.0,20.09507654
17,,,,92.0,37.07977298
18,,,,66.0,97.32098137
19,,,,67.0,99.56933584
