,Subject_ID,Time,PPG,HR,HRV
0,20.0,0.0,-6.59381912805577e-05,,
1,20.0,0.01001001001001,0.0931269150503962,,
2,20.0,0.02002002002002,0.1789208230116411,,
3,20.0,0.03003003003003,0.2646181049604156,,
4,20.0,0.04004004004004,0.344740681836331,,
5,20.0,0.05005005005005,0.4268897104326484,,
6,20.0,0.06006006006006,0.4936991750788762,,
7,20.0,0.07007007007007,0.5654400331531265,,
8,20.0,0.08008008008008,0.6220651243546952,,
9,20.0,0.09009009009009,0.6654815871611663,,
10,20.0,0.1001001001001,0.7182077154721366,,
11,20.0,0.1101101101101101,0.7380879636237757,,
12,20.0,0.1201201201201201,0.7703336807138128,,
13,20.0,0.1301301301301301,0.7751763576162383,,
14,20.0,0.1401401401401401,0.7839294233652747,,
15,20.0,0.1501501501501501,0.777286578602009,,
16,20.0,0.1601601601601601,0.7536207720835035,,
17,20.0,0.1701701701701701,0.7405889906310057,,
18,20.0,0.1801801801801801,0.7150014315517366,,
19,20.0,0.1901901901901901,0.6760833524010946,,
20,20.0,0.2002002002002001,0.6350965818179726,,
21,20.0,0.2102102102102102,0.5894794913335575,,
22,20.0,0.2202202202202202,0.5446317061177685,,
23,20.0,0.2302302302302302,0.4917846258921178,,
24,20.0,0.2402402402402402,0.4401554673222835,,
25,20.0,0.2502502502502503,0.3926702139856553,,
26,20.0,0.2602602602602603,0.3411302053211632,,
27,20.0,0.2702702702702703,0.2855705220088715,,
28,20.0,0.2802802802802803,0.2552956734570377,,
29,20.0,0.2902902902902903,0.2088871710554108,,
30,20.0,0.3003003003003003,0.156848101814644,,
31,20.0,0.3103103103103103,0.129201713154208,,
32,20.0,0.3203203203203203,0.1047003856740396,,
33,20.0,0.3303303303303303,0.0785624879081608,,
34,20.0,0.3403403403403403,0.0520303375211172,,
35,20.0,0.3503503503503503,0.0418409329743689,,
36,20.0,0.3603603603603603,0.0164398347867971,,
37,20.0,0.3703703703703703,0.0187525822283347,,
38,20.0,0.3803803803803803,0.0018919995408512,,
39,20.0,0.3903903903903903,0.0032797041566043,,
40,20.0,0.4004004004004003,0.0030005973603176,,
41,20.0,0.4104104104104104,-0.0077729023166693,,
42,20.0,0.4204204204204204,-0.0011617355758639,,
43,20.0,0.4304304304304304,-0.0021643975346538,,
44,20.0,0.4404404404404404,-0.0003018871379811,,
45,20.0,0.4504504504504504,-0.0072984185188105,,
46,20.0,0.4604604604604604,-0.0066786462394263,,
47,20.0,0.4704704704704704,-0.0158413742297475,,
48,20.0,0.4804804804804805,-0.0305741182872772,,
49,20.0,0.4904904904904905,-0.0439402339339594,,
50,20.0,0.5005005005005005,-0.0694921420126155,,
51,20.0,0.5105105105105106,-0.1018553450380441,,
52,20.0,0.5205205205205206,-0.1217354125245593,,
53,20.0,0.5305305305305306,-0.1599096510952034,,
54,20.0,0.5405405405405406,-0.1944334089995224,,
55,20.0,0.5505505505505506,-0.2491080792733769,,
56,20.0,0.5605605605605606,-0.280094936747078,,
57,20.0,0.5705705705705706,-0.3299093679466535,,
58,20.0,0.5805805805805806,-0.3768626091518155,,
59,20.0,0.5905905905905906,-0.4271951397199713,,
60,20.0,0.6006006006006006,-0.4868532528032269,,
61,20.0,0.6106106106106106,-0.5217738398659291,,
62,20.0,0.6206206206206206,-0.5762762716329392,,
63,20.0,0.6306306306306306,-0.6270003147262403,,
64,20.0,0.6406406406406406,-0.6669406407226938,,
65,20.0,0.6506506506506506,-0.7012183716483908,,
66,20.0,0.6606606606606606,-0.7325754339719387,,
67,20.0,0.6706706706706707,-0.7501067699480868,,
68,20.0,0.6806806806806807,-0.7689229856017542,,
69,20.0,0.6906906906906907,-0.7879262558150119,,
70,20.0,0.7007007007007007,-0.7765833290625843,,
71,20.0,0.7107107107107107,-0.7681301297233865,,
72,20.0,0.7207207207207207,-0.7435818701747555,,
73,20.0,0.7307307307307307,-0.7184834698487922,,
74,20.0,0.7407407407407407,-0.6851475912708915,,
75,20.0,0.7507507507507507,-0.6243490730529805,,
76,20.0,0.7607607607607607,-0.5764809300770316,,
77,20.0,0.7707707707707707,-0.5206935894504819,,
78,20.0,0.7807807807807807,-0.4447442885689006,,
79,20.0,0.7907907907907907,-0.3624676086974044,,
80,20.0,0.8008008008008007,-0.282772154237559,,
81,20.0,0.8108108108108109,-0.1993115257736248,,
82,20.0,0.8208208208208209,-0.1100823859864062,,
83,20.0,0.8308308308308309,-0.0285615519300416,,
84,20.0,0.8408408408408409,0.0620270569240971,,
85,20.0,0.8508508508508509,0.155443382720508,,
86,20.0,0.8608608608608609,0.2441532607466528,,
87,20.0,0.8708708708708709,0.3304911808508315,,
88,20.0,0.8808808808808809,0.4126919499835376,,
89,20.0,0.8908908908908909,0.4838584640655768,,
90,20.0,0.9009009009009008,0.5470783277814324,,
91,20.0,0.9109109109109108,0.6124992500294361,,
92,20.0,0.9209209209209208,0.6612681791944586,,
93,20.0,0.9309309309309308,0.7006508992129333,,
94,20.0,0.9409409409409408,0.7290126520251416,,
95,20.0,0.950950950950951,0.7560921262813824,,
96,20.0,0.960960960960961,0.7782149947182802,,
97,20.0,0.970970970970971,0.773479727972912,,
98,20.0,0.980980980980981,0.7704268827867371,,
99,20.0,0.990990990990991,0.7604297454420024,,
100,20.0,1.001001001001001,0.7402266765167752,,
101,20.0,1.011011011011011,0.7144645632441889,,
102,20.0,1.021021021021021,0.6857583290351889,,
103,20.0,1.031031031031031,0.6469731261001377,,
104,20.0,1.0410410410410411,0.5998901331647359,,
105,20.0,1.0510510510510511,0.5615664619431229,,
106,20.0,1.0610610610610611,0.4978955643589162,,
107,20.0,1.0710710710710711,0.4576144836731031,,
108,20.0,1.0810810810810811,0.4056851264785751,,
109,20.0,1.0910910910910911,0.3541152134973945,,
110,20.0,1.1011011011011012,0.3144515184887716,,
111,20.0,1.1111111111111112,0.2666457122749675,,
112,20.0,1.1211211211211212,0.2157893475674574,,
113,20.0,1.1311311311311312,0.1717906517423763,,
114,20.0,1.1411411411411412,0.1442915145009408,,
115,20.0,1.1511511511511512,0.1072068810112768,,
116,20.0,1.1611611611611612,0.0741041275521128,,
117,20.0,1.1711711711711712,0.0578424599054013,,
118,20.0,1.1811811811811812,0.0454081264644667,,
119,20.0,1.1911911911911912,0.021272774951352,,
120,20.0,1.2012012012012012,0.0033341718925647,,
121,20.0,1.2112112112112112,0.0070995811444163,,
122,20.0,1.2212212212212212,0.0061786896060422,,
123,20.0,1.2312312312312312,-0.0021688417067326,,
124,20.0,1.2412412412412412,0.0011890233805295,,
125,20.0,1.2512512512512513,0.0018572043390378,,
126,20.0,1.2612612612612613,-0.0056584227207296,,
127,20.0,1.2712712712712713,-0.000872397913133,,
128,20.0,1.2812812812812813,0.001195419309309,,
129,20.0,1.2912912912912913,-0.0060961197475658,,
130,20.0,1.3013013013013013,-0.0151429835241987,,
131,20.0,1.3113113113113113,-0.0311317489409989,,
132,20.0,1.3213213213213213,-0.0376566306610749,,
133,20.0,1.3313313313313313,-0.0619288666753868,,
134,20.0,1.3413413413413413,-0.0899593050700391,,
135,20.0,1.351351351351351,-0.1153163270346369,,
136,20.0,1.361361361361361,-0.144574411565958,,
137,20.0,1.371371371371371,-0.1870882171060475,,
138,20.0,1.3813813813813811,-0.2223130588552456,,
139,20.0,1.3913913913913911,-0.2636023620601528,,
140,20.0,1.4014014014014011,-0.321414096039315,,
141,20.0,1.4114114114114114,-0.3679344482656838,,
142,20.0,1.4214214214214214,-0.4217488613251857,,
143,20.0,1.4314314314314314,-0.4676727451415401,,
144,20.0,1.4414414414414414,-0.5183886641337404,,
145,20.0,1.4514514514514514,-0.5666868693740871,,
146,20.0,1.4614614614614614,-0.6147539825408099,,
147,20.0,1.4714714714714714,-0.6542238002240298,,
148,20.0,1.4814814814814814,-0.6925850604656129,,
149,20.0,1.4914914914914914,-0.7222521624260372,,
150,20.0,1.5015015015015014,-0.753413852250473,,
151,20.0,1.5115115115115114,-0.7703895916714779,,
152,20.0,1.5215215215215214,-0.7800554533886226,,
153,20.0,1.5315315315315314,-0.7808916773359246,,
154,20.0,1.5415415415415414,-0.7771641618968432,,
155,20.0,1.5515515515515514,-0.7550024581539239,,
156,20.0,1.5615615615615617,-0.7354275407916233,,
157,20.0,1.5715715715715717,-0.6845525073899963,,
158,20.0,1.5815815815815817,-0.6519500730678526,,
159,20.0,1.5915915915915917,-0.5848811760644209,,
160,20.0,1.6016016016016017,-0.5340107915276628,,
161,20.0,1.6116116116116117,-0.4643443983892906,,
162,20.0,1.6216216216216215,-0.3904557946853156,,
163,20.0,1.6316316316316315,-0.3025482608819169,,
164,20.0,1.6416416416416415,-0.2266791913075026,,
165,20.0,1.6516516516516515,-0.1320927847223701,,
166,20.0,1.6616616616616615,-0.0466139567325227,,
167,20.0,1.6716716716716715,0.0504905917340222,,
168,20.0,1.6816816816816818,0.1363969565784711,,
169,20.0,1.6916916916916918,0.2191322590680831,,
170,20.0,1.7017017017017018,0.3066695515790515,,
171,20.0,1.7117117117117118,0.3891985838224315,,
172,20.0,1.7217217217217218,0.4626816229485723,,
173,20.0,1.7317317317317318,0.5247391326526168,,
174,20.0,1.7417417417417418,0.5983853715192752,,
175,20.0,1.7517517517517518,0.6481553538586488,,
176,20.0,1.7617617617617618,0.6871854995120745,,
177,20.0,1.7717717717717718,0.721121139806213,,
178,20.0,1.7817817817817818,0.7479673929188064,,
179,20.0,1.7917917917917918,0.7654529874011661,,
180,20.0,1.8018018018018016,0.7903939891387458,,
181,20.0,1.811811811811812,0.7697160977933827,,
182,20.0,1.8218218218218216,0.7638696815084454,,
183,20.0,1.831831831831832,0.7536426570424959,,
184,20.0,1.8418418418418416,0.7295643287195008,,
185,20.0,1.851851851851852,0.7043148056125578,,
186,20.0,1.8618618618618616,0.6503373013691452,,
187,20.0,1.871871871871872,0.6162126040038595,,
188,20.0,1.8818818818818817,0.5684209376869287,,
189,20.0,1.891891891891892,0.5249156865273964,,
190,20.0,1.901901901901902,0.4700951258619982,,
191,20.0,1.911911911911912,0.4225092036587675,,
192,20.0,1.921921921921922,0.359426537258161,,
193,20.0,1.931931931931932,0.3138169758511023,,
194,20.0,1.941941941941942,0.2696003858644322,,
195,20.0,1.951951951951952,0.2336592353268223,,
196,20.0,1.961961961961962,0.1821890547006709,,
197,20.0,1.971971971971972,0.1562846709763529,,
198,20.0,1.981981981981982,0.1175585159449642,,
199,20.0,1.991991991991992,0.0837610667696683,,
200,20.0,2.002002002002002,0.0589124108966555,,
201,20.0,2.012012012012012,0.0455508243991286,,
202,20.0,2.022022022022022,0.0226776821723337,,
203,20.0,2.032032032032032,0.0154972307849004,,
204,20.0,2.042042042042042,0.0016380385827589,,
205,20.0,2.052052052052052,0.0018195774988088,,
206,20.0,2.062062062062062,0.0015200916473012,,
207,20.0,2.072072072072072,0.0070342242246671,,
208,20.0,2.0820820820820822,-0.0124849837812777,,
209,20.0,2.092092092092092,-0.0046175074602901,,
210,20.0,2.1021021021021022,-0.0048564768985248,,
211,20.0,2.112112112112112,-0.0017745199042275,,
212,20.0,2.1221221221221223,0.0039183092867656,,
213,20.0,2.1321321321321323,-0.0123888185994319,,
214,20.0,2.1421421421421423,-0.0280909900331341,,
215,20.0,2.1521521521521523,-0.0442064292672819,,
216,20.0,2.1621621621621623,-0.057406970393968,,
217,20.0,2.1721721721721723,-0.0896535272126751,,
218,20.0,2.1821821821821823,-0.1004830790312002,,
219,20.0,2.1921921921921923,-0.1329298277952634,,
220,20.0,2.2022022022022023,-0.1740359469455683,,
221,20.0,2.2122122122122123,-0.2211365493689171,,
222,20.0,2.2222222222222223,-0.2767070318339158,,
223,20.0,2.2322322322322323,-0.3134545055443549,,
224,20.0,2.2422422422422423,-0.3616648620284856,,
225,20.0,2.2522522522522523,-0.4008418603866278,,
226,20.0,2.2622622622622623,-0.4602295135335429,,
227,20.0,2.2722722722722724,-0.5058310361959408,,
228,20.0,2.2822822822822824,-0.5552763178195227,,
229,20.0,2.2922922922922924,-0.5980517221552815,,
230,20.0,2.3023023023023024,-0.650357617198108,,
231,20.0,2.3123123123123124,-0.6867002227318784,,
232,20.0,2.3223223223223224,-0.72141824628594,,
233,20.0,2.3323323323323324,-0.7460524955793647,,
234,20.0,2.3423423423423424,-0.7632277335961458,,
235,20.0,2.3523523523523524,-0.7679057427866394,,
236,20.0,2.3623623623623624,-0.7811586815195095,,
237,20.0,2.3723723723723724,-0.7686630109110367,,
238,20.0,2.3823823823823824,-0.7546451090074404,,
239,20.0,2.3923923923923924,-0.7318526940426252,,
240,20.0,2.4024024024024024,-0.7084389863300826,,
241,20.0,2.4124124124124124,-0.6606252300516715,,
242,20.0,2.4224224224224224,-0.6109477735767999,,
243,20.0,2.4324324324324325,-0.5485593899833311,,
244,20.0,2.4424424424424425,-0.4827519719315223,,
245,20.0,2.4524524524524525,-0.410992304165117,,
246,20.0,2.4624624624624625,-0.3356339348926863,,
247,20.0,2.4724724724724725,-0.2525762441534082,,
248,20.0,2.4824824824824825,-0.1664533704761392,,
249,20.0,2.4924924924924925,-0.0761991892096828,,
250,20.0,2.5025025025025025,0.0088369429758523,,
251,20.0,2.5125125125125125,0.1120345868542114,,
252,20.0,2.5225225225225225,0.2093493927499602,,
253,20.0,2.5325325325325325,0.2909285752323663,,
254,20.0,2.5425425425425425,0.3717007426809939,,
255,20.0,2.5525525525525525,0.4479431736349195,,
256,20.0,2.5625625625625625,0.5119735652745612,,
257,20.0,2.5725725725725725,0.5782587697852684,,
258,20.0,2.5825825825825826,0.6226395578775189,,
259,20.0,2.592592592592593,0.6825808827040402,,
260,20.0,2.6026026026026026,0.7199149310357464,,
261,20.0,2.612612612612613,0.7524268891125496,,
262,20.0,2.6226226226226226,0.7597849961289312,,
263,20.0,2.6326326326326326,0.773894312216168,,
264,20.0,2.6426426426426426,0.7840069774220685,,
265,20.0,2.6526526526526526,0.7688316011254,,
266,20.0,2.6626626626626626,0.756921939269896,,
267,20.0,2.6726726726726726,0.726897264215779,,
268,20.0,2.6826826826826826,0.6992819022919531,,
269,20.0,2.6926926926926926,0.6569457671091431,,
270,20.0,2.702702702702702,0.6202565963874777,,
271,20.0,2.7127127127127126,0.5719371696802583,,
272,20.0,2.722722722722722,0.5216086476167692,,
273,20.0,2.7327327327327327,0.4836057781429216,,
274,20.0,2.7427427427427427,0.4349926682372003,,
275,20.0,2.7527527527527527,0.3756468630819076,,
276,20.0,2.7627627627627627,0.3408168697402048,,
277,20.0,2.7727727727727727,0.2800954345881009,,
278,20.0,2.7827827827827827,0.2306657133826629,,
279,20.0,2.7927927927927927,0.2002458777873438,,
280,20.0,2.8028028028028027,0.161134017225292,,
281,20.0,2.8128128128128127,0.1152937994599934,,
282,20.0,2.8228228228228227,0.092721590082196,,
283,20.0,2.8328328328328327,0.0705976190478854,,
284,20.0,2.8428428428428427,0.0453273491291084,,
285,20.0,2.8528528528528527,0.0317071341792892,,
286,20.0,2.8628628628628627,0.0260214681802686,,
287,20.0,2.8728728728728727,0.0075449471855684,,
288,20.0,2.8828828828828827,0.0134385373830801,,
289,20.0,2.8928928928928928,0.0050037496845631,,
290,20.0,2.9029029029029028,-0.0026717615402515,,
291,20.0,2.9129129129129128,0.0037852829134314,,
292,20.0,2.9229229229229228,0.0148152556401777,,
293,20.0,2.932932932932933,-0.0075239043356645,,
294,20.0,2.942942942942943,-0.0025949557728613,,
295,20.0,2.952952952952953,-0.0083564145614682,,
296,20.0,2.962962962962963,-0.01350082442429,,
297,20.0,2.972972972972973,-0.0299609445433775,,
298,20.0,2.982982982982983,-0.0287752624746849,,
299,20.0,2.992992992992993,-0.0646752807469007,,
300,20.0,3.003003003003003,-0.0703353181634127,,
301,20.0,3.013013013013013,-0.0973802206010146,,
302,20.0,3.023023023023023,-0.1303595877150721,,
303,20.0,3.033033033033033,-0.1718563872448733,,
304,20.0,3.043043043043043,-0.2072021673640016,,
305,20.0,3.053053053053053,-0.2587935483350124,,
306,20.0,3.063063063063063,-0.2952815126604595,,
307,20.0,3.073073073073073,-0.3407108986047386,,
308,20.0,3.083083083083083,-0.3891241788284993,,
309,20.0,3.093093093093093,-0.4402767745983506,,
310,20.0,3.103103103103103,-0.4963330142922634,,
311,20.0,3.113113113113113,-0.5421328997546109,,
312,20.0,3.123123123123123,-0.5898343214168401,,
313,20.0,3.133133133133133,-0.6325905907551285,,
314,20.0,3.143143143143143,-0.6643223176064897,,
315,20.0,3.153153153153153,-0.7063300170368046,,
316,20.0,3.163163163163163,-0.7371753162875679,,
317,20.0,3.173173173173173,-0.7687028754216614,,
318,20.0,3.183183183183183,-0.771692307830449,,
319,20.0,3.193193193193193,-0.7719077712342388,,
320,20.0,3.203203203203203,-0.7769492919647148,,
321,20.0,3.2132132132132134,-0.7664148382671604,,
322,20.0,3.2232232232232234,-0.7393665073417929,,
323,20.0,3.2332332332332334,-0.7080934779275505,,
324,20.0,3.2432432432432434,-0.6696952183555224,,
325,20.0,3.253253253253253,-0.6166589028786977,,
326,20.0,3.2632632632632634,-0.5656577049867172,,
327,20.0,3.273273273273273,-0.5001762786898156,,
328,20.0,3.2832832832832834,-0.4307806745508417,,
329,20.0,3.293293293293293,-0.3460337308558968,,
330,20.0,3.3033033033033035,-0.269523920720558,,
331,20.0,3.313313313313313,-0.1778297896794014,,
332,20.0,3.3233233233233235,-0.0900698134768025,,
333,20.0,3.333333333333333,0.003183033056406,,
334,20.0,3.3433433433433435,0.0911731227004561,,
335,20.0,3.353353353353353,0.1941565280675238,,
336,20.0,3.3633633633633635,0.2591117531657913,,
337,20.0,3.373373373373373,0.3492159275352099,,
338,20.0,3.3833833833833835,0.4322505270962551,,
339,20.0,3.393393393393393,0.4946231256733279,,
340,20.0,3.4034034034034035,0.5579488324312697,,
341,20.0,3.413413413413413,0.6300561525717193,,
342,20.0,3.4234234234234235,0.6624190784996739,,
343,20.0,3.433433433433433,0.7150617003986602,,
344,20.0,3.443443443443444,0.7388513259922518,,
345,20.0,3.4534534534534536,0.7673652148370517,,
346,20.0,3.463463463463464,0.786523012170831,,
347,20.0,3.4734734734734736,0.7837815494340767,,
348,20.0,3.483483483483484,0.7756482811499823,,
349,20.0,3.4934934934934936,0.764007916550264,,
350,20.0,3.503503503503504,0.7368502883442306,,
351,20.0,3.5135135135135136,0.7083024490423689,,
352,20.0,3.523523523523524,0.6800389247389113,,
353,20.0,3.5335335335335336,0.6354871662805021,,
354,20.0,3.543543543543544,0.5900820057286534,,
355,20.0,3.5535535535535536,0.5473301733899689,,
356,20.0,3.563563563563564,0.4886893583374231,,
357,20.0,3.5735735735735736,0.4423023823151894,,
358,20.0,3.583583583583584,0.3933084839763718,,
359,20.0,3.5935935935935936,0.345644177140201,,
360,20.0,3.603603603603604,0.290075478270911,,
361,20.0,3.6136136136136137,0.2443781403850957,,
362,20.0,3.623623623623624,0.2039891098767305,,
363,20.0,3.6336336336336337,0.1649418547291461,,
364,20.0,3.643643643643644,0.1293818428692001,,
365,20.0,3.6536536536536537,0.099080401530409,,
366,20.0,3.663663663663664,0.0784628380861754,,
367,20.0,3.6736736736736737,0.0499702155123394,,
368,20.0,3.683683683683684,0.0353165303433685,,
369,20.0,3.6936936936936937,0.0186117878337927,,
370,20.0,3.703703703703704,0.0091326847229383,,
371,20.0,3.7137137137137137,0.0035832317345443,,
372,20.0,3.723723723723724,0.0017326035322136,,
373,20.0,3.7337337337337337,0.0005588068241177,,
374,20.0,3.743743743743744,0.000735288794607,,
375,20.0,3.7537537537537538,3.4353798516687046e-05,,
376,20.0,3.763763763763764,-0.0011805137607944,,
377,20.0,3.7737737737737738,-0.0023921160709538,,
378,20.0,3.783783783783784,-0.0004982073303991,,
379,20.0,3.793793793793794,-0.0151585350727652,,
380,20.0,3.803803803803804,-0.0127373548875561,,
381,20.0,3.813813813813814,-0.0369171460118953,,
382,20.0,3.823823823823824,-0.0440923405992975,,
383,20.0,3.833833833833834,-0.0599466960557319,,
384,20.0,3.843843843843844,-0.0956453430008027,,
385,20.0,3.853853853853854,-0.1256542015547711,,
386,20.0,3.863863863863864,-0.1542033133306153,,
387,20.0,3.873873873873874,-0.1932632134746185,,
388,20.0,3.883883883883884,-0.2311589263553457,,
389,20.0,3.893893893893894,-0.2781910966767626,,
390,20.0,3.903903903903904,-0.3243744052438337,,
391,20.0,3.913913913913914,-0.3795317238260402,,
392,20.0,3.923923923923924,-0.4310411781352289,,
393,20.0,3.933933933933934,-0.4821821730480546,,
394,20.0,3.943943943943944,-0.5309257624955454,,
395,20.0,3.953953953953954,-0.5754190496518964,,
396,20.0,3.963963963963964,-0.6227849634725683,,
397,20.0,3.973973973973974,-0.6701403321995568,,
398,20.0,3.983983983983984,-0.6951609082702063,,
399,20.0,3.993993993993994,-0.731961284335945,,
400,20.0,4.004004004004004,-0.7542515782917133,,
401,20.0,4.014014014014014,-0.7700077096229961,,
402,20.0,4.024024024024024,-0.7789828364602708,,
403,20.0,4.034034034034034,-0.7818585487371233,,
404,20.0,4.044044044044044,-0.7661810345564445,,
405,20.0,4.054054054054054,-0.7480359861381539,,
406,20.0,4.064064064064064,-0.7164679430021612,,
407,20.0,4.074074074074074,-0.6854260866019061,,
408,20.0,4.084084084084084,-0.6398685973678296,,
409,20.0,4.094094094094094,-0.5795075210634902,,
410,20.0,4.104104104104104,-0.5161969345012449,,
411,20.0,4.114114114114114,-0.4484871365861357,,
412,20.0,4.124124124124124,-0.3664958737443117,,
413,20.0,4.134134134134134,-0.3006246379656916,,
414,20.0,4.144144144144144,-0.1992040653175537,,
415,20.0,4.1541541541541545,-0.1053316939500301,,
416,20.0,4.1641641641641645,-0.0227736675384233,,
417,20.0,4.174174174174175,0.0655348879661597,,
418,20.0,4.1841841841841845,0.1646761943453183,,
419,20.0,4.1941941941941945,0.2414912504590706,,
420,20.0,4.2042042042042045,0.3221359665484567,,
421,20.0,4.214214214214215,0.4112003733115548,,
422,20.0,4.2242242242242245,0.4889653638799998,,
423,20.0,4.2342342342342345,0.5427184529909812,,
424,20.0,4.2442442442442445,0.609037901296806,,
425,20.0,4.254254254254255,0.6557807822173312,,
426,20.0,4.2642642642642645,0.70425723012149,,
427,20.0,4.2742742742742745,0.7243877806174835,,
428,20.0,4.2842842842842845,0.7617197771534758,,
429,20.0,4.294294294294295,0.7707238241167396,,
430,20.0,4.3043043043043046,0.779850446399889,,
431,20.0,4.314314314314315,0.7868591038767379,,
432,20.0,4.324324324324325,0.769935508057024,,
433,20.0,4.334334334334335,0.7440534691211488,,
434,20.0,4.344344344344345,0.720057054247696,,
435,20.0,4.354354354354355,0.6834768944547727,,
436,20.0,4.364364364364365,0.6468074940935942,,
437,20.0,4.374374374374375,0.6014046093053899,,
438,20.0,4.384384384384385,0.5540884613133312,,
439,20.0,4.394394394394395,0.5061210033516463,,
440,20.0,4.404404404404405,0.4536110244175511,,
441,20.0,4.414414414414415,0.402071975361222,,
442,20.0,4.424424424424425,0.346101311890325,,
443,20.0,4.434434434434435,0.3122813432348177,,
444,20.0,4.444444444444445,0.2543087313699825,,
445,20.0,4.454454454454455,0.2153141757425108,,
446,20.0,4.464464464464465,0.1733026447574873,,
447,20.0,4.474474474474475,0.1358403238333846,,
448,20.0,4.484484484484485,0.1059451438514084,,
449,20.0,4.494494494494495,0.0823296065332084,,
450,20.0,4.504504504504505,0.0574820958542717,,
451,20.0,4.514514514514515,0.0330555375042207,,
452,20.0,4.524524524524525,0.0224264437407345,,
453,20.0,4.534534534534535,0.0110433018648613,,
454,20.0,4.544544544544545,0.0155900496262379,,
455,20.0,4.554554554554555,0.0108357882440073,,
456,20.0,4.564564564564565,0.0045416898880123,,
457,20.0,4.574574574574575,0.0025768915695197,,
458,20.0,4.584584584584585,-0.0024963067825568,,
459,20.0,4.594594594594595,0.0059927590830158,,
460,20.0,4.604604604604605,0.0025536465954508,,
461,20.0,4.614614614614615,-0.0070252622210637,,
462,20.0,4.624624624624625,-0.0071075654057357,,
463,20.0,4.634634634634635,-0.0086339219336822,,
464,20.0,4.644644644644645,-0.026814471028304,,
465,20.0,4.654654654654655,-0.0439020025430856,,
466,20.0,4.664664664664665,-0.0588774551889084,,
467,20.0,4.674674674674675,-0.0902812628581499,,
468,20.0,4.684684684684685,-0.1074709272269913,,
469,20.0,4.694694694694695,-0.150945610294925,,
470,20.0,4.704704704704705,-0.1807376833740429,,
471,20.0,4.714714714714715,-0.2336262028362418,,
472,20.0,4.724724724724725,-0.2699920839543919,,
473,20.0,4.734734734734735,-0.3177590892505089,,
474,20.0,4.744744744744745,-0.3649767621054461,,
475,20.0,4.754754754754755,-0.4107581170353247,,
476,20.0,4.764764764764765,-0.4716250654016268,,
477,20.0,4.774774774774775,-0.5191657054380389,,
478,20.0,4.784784784784785,-0.5710024041289312,,
479,20.0,4.794794794794795,-0.6116978073520778,,
480,20.0,4.804804804804805,-0.6548740177454491,,
481,20.0,4.814814814814815,-0.6992061452607666,,
482,20.0,4.824824824824825,-0.7206765358065521,,
483,20.0,4.834834834834835,-0.7484512355570309,,
484,20.0,4.844844844844845,-0.7640916953359761,,
485,20.0,4.854854854854855,-0.7744173825672014,,
486,20.0,4.864864864864865,-0.7732418845298313,,
487,20.0,4.874874874874875,-0.7763613349962198,,
488,20.0,4.884884884884885,-0.755343022557532,,
489,20.0,4.894894894894895,-0.7313720123057197,,
490,20.0,4.904904904904905,-0.6885035020683464,,
491,20.0,4.914914914914915,-0.6520633714527063,,
492,20.0,4.924924924924925,-0.5921381261245058,,
493,20.0,4.934934934934935,-0.5295083996519736,,
494,20.0,4.944944944944945,-0.4654184072962721,,
495,20.0,4.954954954954955,-0.3815667522069489,,
496,20.0,4.964964964964965,-0.31070061229225,,
497,20.0,4.974974974974975,-0.2255787475967499,,
498,20.0,4.984984984984985,-0.134274626939783,,
499,20.0,4.994994994994995,-0.0536671062877644,,
500,20.0,5.005005005005005,0.0437216111528184,,
501,20.0,5.015015015015015,0.1329941711714157,,
502,20.0,5.025025025025025,0.2204976887919449,,
503,20.0,5.035035035035035,0.3007814931549854,,
504,20.0,5.045045045045045,0.3889538946520199,,
505,20.0,5.055055055055055,0.4671676493608389,,
506,20.0,5.065065065065065,0.5392242871470764,,
507,20.0,5.075075075075075,0.5939872815879365,,
508,20.0,5.085085085085085,0.6453554344483097,,
509,20.0,5.095095095095095,0.6831534472053443,,
510,20.0,5.105105105105105,0.7280014361319049,,
511,20.0,5.115115115115115,0.7530485919874235,,
512,20.0,5.125125125125125,0.7704904225495739,,
513,20.0,5.135135135135135,0.7757934991816805,,
514,20.0,5.145145145145145,0.7738699088014969,,
515,20.0,5.155155155155155,0.7673717443210585,,
516,20.0,5.165165165165165,0.7584166812089022,,
517,20.0,5.175175175175175,0.7213622270619583,,
518,20.0,5.185185185185185,0.6946751138057143,,
519,20.0,5.195195195195195,0.6521030956707755,,
520,20.0,5.205205205205205,0.6100818813664565,,
521,20.0,5.215215215215215,0.5684932052479676,,
522,20.0,5.225225225225225,0.5289920258104102,,
523,20.0,5.235235235235235,0.4736512004057089,,
524,20.0,5.245245245245245,0.4180174905696263,,
525,20.0,5.255255255255255,0.3692813640311989,,
526,20.0,5.265265265265265,0.3225029335982563,,
527,20.0,5.275275275275275,0.2708376122129873,,
528,20.0,5.285285285285285,0.2313725022413634,,
529,20.0,5.295295295295295,0.1777832954188207,,
530,20.0,5.305305305305305,0.15007800698917,,
531,20.0,5.315315315315315,0.1156014486247066,,
532,20.0,5.325325325325325,0.0883604300260821,,
533,20.0,5.335335335335335,0.0634945465261145,,
534,20.0,5.345345345345345,0.0397698716746903,,
535,20.0,5.355355355355355,0.0342001564657867,,
536,20.0,5.365365365365365,0.0208301168336414,,
537,20.0,5.375375375375375,0.0081607270067208,,
538,20.0,5.385385385385385,-0.0001994252309021,,
539,20.0,5.395395395395395,-0.0010001487615979,,
540,20.0,5.405405405405405,0.0030036974015264,,
541,20.0,5.415415415415415,0.002102736605187,,
542,20.0,5.425425425425425,-0.0085562121759626,,
543,20.0,5.435435435435435,-0.0037654811290729,,
544,20.0,5.445445445445445,-0.0058692591699827,,
545,20.0,5.455455455455455,-0.0083646866469649,,
546,20.0,5.465465465465465,-0.0133233605811233,,
547,20.0,5.475475475475475,-0.0186602226147358,,
548,20.0,5.485485485485485,-0.0402635598047654,,
549,20.0,5.495495495495495,-0.0598789606263914,,
550,20.0,5.505505505505505,-0.081377712876586,,
551,20.0,5.515515515515515,-0.116662391374016,,
552,20.0,5.525525525525525,-0.1409436520147361,,
553,20.0,5.535535535535535,-0.1737280559291521,,
554,20.0,5.545545545545545,-0.2153292157065897,,
555,20.0,5.555555555555555,-0.2571371942398837,,
556,20.0,5.565565565565565,-0.3187796557827969,,
557,20.0,5.575575575575575,-0.3602708100867077,,
558,20.0,5.585585585585585,-0.4010951541730843,,
559,20.0,5.595595595595595,-0.4640182358525329,,
560,20.0,5.605605605605605,-0.5028190239891963,,
561,20.0,5.615615615615615,-0.546507091169567,,
562,20.0,5.625625625625625,-0.5928041464778874,,
563,20.0,5.635635635635635,-0.6427792688221452,,
564,20.0,5.645645645645645,-0.6941957924470267,,
565,20.0,5.655655655655655,-0.7142408252243541,,
566,20.0,5.665665665665665,-0.7475307607543544,,
567,20.0,5.675675675675675,-0.7671850244579971,,
568,20.0,5.685685685685685,-0.7751453549712016,,
569,20.0,5.695695695695696,-0.77394206109661,,
570,20.0,5.7057057057057055,-0.7699330615163797,,
571,20.0,5.715715715715716,-0.761219190421771,,
572,20.0,5.7257257257257255,-0.7421338984596002,,
573,20.0,5.735735735735736,-0.6955987469243827,,
574,20.0,5.7457457457457455,-0.6548795254134505,,
575,20.0,5.755755755755756,-0.6143090865263442,,
576,20.0,5.7657657657657655,-0.5521143979240001,,
577,20.0,5.775775775775776,-0.4794233515899437,,
578,20.0,5.7857857857857855,-0.4025620966468382,,
579,20.0,5.795795795795796,-0.3249887017279125,,
580,20.0,5.8058058058058055,-0.2482278185242033,,
581,20.0,5.815815815815816,-0.1505270466776704,,
582,20.0,5.8258258258258255,-0.0651977831667827,,
583,20.0,5.835835835835836,0.0188497168503971,,
584,20.0,5.8458458458458455,0.1081405444427252,,
585,20.0,5.855855855855856,0.2141963973523495,,
586,20.0,5.865865865865866,0.2912412945085129,,
587,20.0,5.875875875875876,0.3692921697319788,,
588,20.0,5.885885885885886,0.4436683269509198,,
589,20.0,5.895895895895896,0.5140234111124132,,
590,20.0,5.905905905905906,0.5795098518049943,,
591,20.0,5.915915915915916,0.6348575381890885,,
592,20.0,5.925925925925926,0.6811290745223627,,
593,20.0,5.935935935935936,0.7166081504375803,,
594,20.0,5.945945945945946,0.7456140249281709,,
595,20.0,5.955955955955956,0.7654236532759958,,
596,20.0,5.965965965965966,0.7678041952093905,,
597,20.0,5.975975975975976,0.7719637098188259,,
598,20.0,5.985985985985986,0.7749471373710073,,
599,20.0,5.995995995995996,0.7600059701753942,,
600,20.0,6.006006006006006,0.7334913574902086,,
601,20.0,6.016016016016016,0.6937653081471671,,
602,20.0,6.026026026026026,0.6714415804992648,,
603,20.0,6.036036036036036,0.623261697235333,,
604,20.0,6.046046046046046,0.5761193158843342,,
605,20.0,6.056056056056056,0.5347560515594036,,
606,20.0,6.066066066066066,0.4833841446174806,,
607,20.0,6.076076076076076,0.4200570314350784,,
608,20.0,6.086086086086086,0.3781710397166099,,
609,20.0,6.096096096096096,0.3360530457755256,,
610,20.0,6.106106106106106,0.2835602812613487,,
611,20.0,6.116116116116116,0.2340188090873815,,
612,20.0,6.126126126126126,0.2001335527402295,,
613,20.0,6.136136136136136,0.1491126296137321,,
614,20.0,6.146146146146146,0.1211592958278393,,
615,20.0,6.156156156156156,0.09839299971586,,
616,20.0,6.166166166166166,0.0593979760140024,,
617,20.0,6.176176176176176,0.0627552710149771,,
618,20.0,6.186186186186186,0.0345142027882634,,
619,20.0,6.196196196196196,0.0219297981671215,,
620,20.0,6.206206206206206,0.0073664719929899,,
621,20.0,6.216216216216216,0.0038420210264793,,
622,20.0,6.226226226226226,0.0012559903939997,,
623,20.0,6.236236236236236,0.0013931437201223,,
624,20.0,6.246246246246246,0.0008403486711121,,
625,20.0,6.256256256256256,0.0091163579141416,,
626,20.0,6.266266266266266,0.0009793851116536,,
627,20.0,6.276276276276276,0.0006087854742813,,
628,20.0,6.286286286286286,-0.0083420722220955,,
629,20.0,6.296296296296296,-0.0071209784758038,,
630,20.0,6.306306306306306,-0.0195555746020845,,
631,20.0,6.316316316316316,-0.0267238850869807,,
632,20.0,6.326326326326326,-0.0552914787386173,,
633,20.0,6.336336336336336,-0.0768056983070821,,
634,20.0,6.346346346346346,-0.0865218764185005,,
635,20.0,6.356356356356356,-0.1394926751792801,,
636,20.0,6.366366366366366,-0.164538740755055,,
637,20.0,6.376376376376376,-0.2076867934957902,,
638,20.0,6.386386386386386,-0.2509045496768016,,
639,20.0,6.396396396396396,-0.2918235707587532,,
640,20.0,6.406406406406406,-0.3405625693290391,,
641,20.0,6.416416416416417,-0.3930301742788414,,
642,20.0,6.426426426426427,-0.4429870457635058,,
643,20.0,6.436436436436437,-0.4907666334326597,,
644,20.0,6.446446446446447,-0.5437225672762374,,
645,20.0,6.456456456456457,-0.5917539672622164,,
646,20.0,6.466466466466467,-0.627739054081925,,
647,20.0,6.476476476476477,-0.6789671140080247,,
648,20.0,6.486486486486487,-0.7125032411874936,,
649,20.0,6.496496496496497,-0.743516852313737,,
650,20.0,6.506506506506507,-0.7629740738675376,,
651,20.0,6.516516516516517,-0.774588280349857,,
652,20.0,6.526526526526527,-0.7788970201652143,,
653,20.0,6.536536536536537,-0.7834409921539375,,
654,20.0,6.546546546546547,-0.7504306455218243,,
655,20.0,6.556556556556557,-0.7364560309458726,,
656,20.0,6.566566566566567,-0.710171404054299,,
657,20.0,6.576576576576577,-0.6764134754166665,,
658,20.0,6.586586586586587,-0.6226625937264189,,
659,20.0,6.596596596596597,-0.5648297765184067,,
660,20.0,6.606606606606607,-0.4968718038010483,,
661,20.0,6.616616616616617,-0.4208827127920149,,
662,20.0,6.626626626626627,-0.3551134285003958,,
663,20.0,6.636636636636637,-0.2698356621861875,,
664,20.0,6.646646646646647,-0.1848332024363115,,
665,20.0,6.656656656656657,-0.0932022342151796,,
666,20.0,6.666666666666667,-0.0040401754554107,,
667,20.0,6.676676676676677,0.0953123594997069,,
668,20.0,6.686686686686687,0.1792798189605368,,
669,20.0,6.696696696696697,0.2658984370614195,,
670,20.0,6.706706706706707,0.3500090414193818,,
671,20.0,6.716716716716717,0.4249850994900544,,
672,20.0,6.726726726726727,0.4931802751316179,,
673,20.0,6.736736736736737,0.5668869470750872,,
674,20.0,6.746746746746747,0.6187521993743123,,
675,20.0,6.756756756756757,0.6805348575968163,,
676,20.0,6.766766766766767,0.6998933831886447,,
677,20.0,6.776776776776777,0.7449592472556431,,
678,20.0,6.786786786786787,0.757813795406731,,
679,20.0,6.796796796796797,0.7831262765746763,,
680,20.0,6.806806806806807,0.7764021358767652,,
681,20.0,6.816816816816817,0.7723732063518925,,
682,20.0,6.826826826826827,0.7620446990346315,,
683,20.0,6.836836836836837,0.7318238923163429,,
684,20.0,6.846846846846847,0.7076579656650196,,
685,20.0,6.856856856856857,0.6765516451637066,,
686,20.0,6.866866866866867,0.6376616424398942,,
687,20.0,6.876876876876877,0.5989119456219961,,
688,20.0,6.886886886886887,0.5389853810881923,,
689,20.0,6.896896896896897,0.4944646321666123,,
690,20.0,6.906906906906907,0.4503658112106026,,
691,20.0,6.916916916916917,0.3906724678243349,,
692,20.0,6.926926926926927,0.3435835077962233,,
693,20.0,6.936936936936937,0.2943893244774885,,
694,20.0,6.946946946946947,0.2451103203457373,,
695,20.0,6.956956956956957,0.2114758146970669,,
696,20.0,6.966966966966967,0.1730586035109538,,
697,20.0,6.976976976976977,0.1347768159379476,,
698,20.0,6.986986986986987,0.101559893712225,,
699,20.0,6.996996996996997,0.0753397285712149,,
700,20.0,7.007007007007007,0.0648770983803074,,
701,20.0,7.017017017017017,0.0287821860194572,,
702,20.0,7.027027027027027,0.0100531224742166,,
703,20.0,7.037037037037037,0.01435363053723,,
704,20.0,7.047047047047047,0.0093529096961207,,
705,20.0,7.057057057057057,0.0067246732019337,,
706,20.0,7.067067067067067,-0.0044969551863192,,
707,20.0,7.077077077077077,-0.0011348959602537,,
708,20.0,7.087087087087087,0.005152876527806,,
709,20.0,7.097097097097097,0.0003894345731092,,
710,20.0,7.107107107107107,0.0044906356930059,,
711,20.0,7.117117117117117,-0.0059065033139683,,
712,20.0,7.127127127127127,-0.0075129330786072,,
713,20.0,7.137137137137137,-0.0223468676068162,,
714,20.0,7.147147147147147,-0.0247478082292052,,
715,20.0,7.157157157157157,-0.043291326558808,,
716,20.0,7.167167167167167,-0.07246021068874,,
717,20.0,7.177177177177177,-0.0997566574613599,,
718,20.0,7.187187187187187,-0.1220987386028766,,
719,20.0,7.197197197197197,-0.1634673773866433,,
720,20.0,7.207207207207207,-0.1944050352769966,,
721,20.0,7.217217217217217,-0.2447679897935022,,
722,20.0,7.227227227227227,-0.2854176334174212,,
723,20.0,7.237237237237237,-0.3325318405274752,,
724,20.0,7.247247247247247,-0.3752235806726774,,
725,20.0,7.257257257257257,-0.4419973627776152,,
726,20.0,7.267267267267267,-0.4830899560999848,,
727,20.0,7.277277277277277,-0.5354785977709452,,
728,20.0,7.287287287287287,-0.5780667682300956,,
729,20.0,7.297297297297297,-0.6273027037722594,,
730,20.0,7.307307307307307,-0.662206307644773,,
731,20.0,7.317317317317317,-0.6988550071728753,,
732,20.0,7.327327327327327,-0.7337574296723842,,
733,20.0,7.337337337337337,-0.7607606656701188,,
734,20.0,7.347347347347347,-0.7679779886881798,,
735,20.0,7.357357357357357,-0.7826354152217486,,
736,20.0,7.367367367367367,-0.7790830571515406,,
737,20.0,7.377377377377377,-0.7615981492036973,,
738,20.0,7.387387387387387,-0.7537223924509331,,
739,20.0,7.397397397397397,-0.7261688008867642,,
740,20.0,7.407407407407407,-0.676391056464787,,
741,20.0,7.4174174174174174,-0.6298243130924488,,
742,20.0,7.4274274274274275,-0.5711558740556125,,
743,20.0,7.437437437437437,-0.5257482070191312,,
744,20.0,7.447447447447447,-0.4483376244508244,,
745,20.0,7.4574574574574575,-0.3619323455851455,,
746,20.0,7.4674674674674675,-0.2796762521393456,,
747,20.0,7.477477477477477,-0.1979503953847819,,
748,20.0,7.487487487487487,-0.1099267476699416,,
749,20.0,7.4974974974974975,-0.0289674229318653,,
750,20.0,7.5075075075075075,0.0678553377469695,,
751,20.0,7.517517517517517,0.1638289989326502,,
752,20.0,7.527527527527527,0.2357540201569367,,
753,20.0,7.5375375375375375,0.3299421348299017,,
754,20.0,7.5475475475475475,0.4125155971240195,,
755,20.0,7.557557557557557,0.480974377487056,,
756,20.0,7.567567567567567,0.5455058130036268,,
757,20.0,7.5775775775775776,0.6157605902738421,,
758,20.0,7.587587587587588,0.656963485565604,,
759,20.0,7.597597597597598,0.694712832150823,,
760,20.0,7.607607607607608,0.7316789853372156,,
761,20.0,7.617617617617618,0.768411352412608,,
762,20.0,7.627627627627628,0.7839745968496571,,
763,20.0,7.637637637637638,0.779122690053983,,
764,20.0,7.647647647647648,0.7725662505773188,,
765,20.0,7.657657657657658,0.7613270739638387,,
766,20.0,7.667667667667668,0.7385107910642796,,
767,20.0,7.677677677677678,0.7155775610324125,,
768,20.0,7.687687687687688,0.6880336901318185,,
769,20.0,7.697697697697698,0.6518735794164732,,
770,20.0,7.707707707707708,0.6055849850370705,,
771,20.0,7.717717717717718,0.5543713686261574,,
772,20.0,7.727727727727728,0.5095294163319973,,
773,20.0,7.737737737737738,0.4535878287272691,,
774,20.0,7.747747747747748,0.4022944611703338,,
775,20.0,7.757757757757758,0.3550472788528618,,
776,20.0,7.767767767767768,0.3045452158726586,,
777,20.0,7.777777777777778,0.2637145417489371,,
778,20.0,7.787787787787788,0.2202080221429768,,
779,20.0,7.797797797797798,0.1812477707462364,,
780,20.0,7.807807807807808,0.1354290695903831,,
781,20.0,7.817817817817818,0.1096632099404316,,
782,20.0,7.827827827827828,0.0857487906661965,,
783,20.0,7.837837837837838,0.0607625335278391,,
784,20.0,7.847847847847848,0.03754508777423,,
785,20.0,7.857857857857858,0.0322627529160634,,
786,20.0,7.867867867867868,0.0117797503441937,,
787,20.0,7.877877877877878,0.0048924913919103,,
788,20.0,7.887887887887888,0.0069840283177576,,
789,20.0,7.897897897897898,0.0006935071108979,,
790,20.0,7.907907907907908,7.9236700438833e-05,,
791,20.0,7.917917917917918,0.0049194144425741,,
792,20.0,7.927927927927928,0.0011946573659921,,
793,20.0,7.937937937937938,-0.0008306800371715,,
794,20.0,7.947947947947948,-0.0055371653160733,,
795,20.0,7.957957957957958,-0.0028486478557228,,
796,20.0,7.967967967967968,-0.0203070306217124,,
797,20.0,7.977977977977978,-0.0311904499026869,,
798,20.0,7.987987987987988,-0.03829473317246,,
799,20.0,7.997997997997998,-0.0648027501888894,,
800,20.0,8.008008008008009,-0.0852691264662131,,
801,20.0,8.018018018018019,-0.1148066087884554,,
802,20.0,8.028028028028029,-0.1502249566600418,,
803,20.0,8.038038038038039,-0.1880851593208096,,
804,20.0,8.048048048048049,-0.2215515945383493,,
805,20.0,8.058058058058059,-0.2667523979188412,,
806,20.0,8.068068068068069,-0.3115942047220131,,
807,20.0,8.078078078078079,-0.367289970665361,,
808,20.0,8.088088088088089,-0.4148543782089269,,
809,20.0,8.098098098098099,-0.4673477304286437,,
810,20.0,8.108108108108109,-0.5229870947363716,,
811,20.0,8.118118118118119,-0.5629043212562533,,
812,20.0,8.128128128128129,-0.6129590397035161,,
813,20.0,8.138138138138139,-0.6582319838564716,,
814,20.0,8.148148148148149,-0.684441070842826,,
815,20.0,8.158158158158159,-0.728061001806846,,
816,20.0,8.168168168168169,-0.7477625037780488,,
817,20.0,8.178178178178179,-0.7687465214934093,,
818,20.0,8.188188188188189,-0.7898017611738307,,
819,20.0,8.198198198198199,-0.7795351357228575,,
820,20.0,8.208208208208209,-0.7763478544049294,,
821,20.0,8.218218218218219,-0.7559729616029299,,
822,20.0,8.228228228228229,-0.7308216684528566,,
823,20.0,8.238238238238239,-0.6918450238502468,,
824,20.0,8.248248248248249,-0.6481603978277423,,
825,20.0,8.258258258258259,-0.5987096869062932,,
826,20.0,8.268268268268269,-0.5313546003857872,,
827,20.0,8.278278278278279,-0.4720708028144149,,
828,20.0,8.288288288288289,-0.388336028289987,,
829,20.0,8.298298298298299,-0.3136110760703332,,
830,20.0,8.308308308308309,-0.2227708697500466,,
831,20.0,8.318318318318319,-0.1386897107267408,,
832,20.0,8.328328328328329,-0.043345533605413,,
833,20.0,8.338338338338339,0.045734932156193,,
834,20.0,8.348348348348349,0.1433420550342839,,
835,20.0,8.358358358358359,0.2201748703669503,,
836,20.0,8.368368368368369,0.3072744998554909,,
837,20.0,8.378378378378379,0.3891748515273883,,
838,20.0,8.388388388388389,0.4570686709070138,,
839,20.0,8.398398398398399,0.5217028298294017,,
840,20.0,8.408408408408409,0.5951437559558552,,
841,20.0,8.418418418418419,0.6421733944821855,,
842,20.0,8.428428428428429,0.6976815683772133,,
843,20.0,8.438438438438439,0.7372388095311795,,
844,20.0,8.448448448448449,0.7579561896202462,,
845,20.0,8.458458458458459,0.7658245729461384,,
846,20.0,8.468468468468469,0.7803758312297779,,
847,20.0,8.478478478478479,0.7661544736217505,,
848,20.0,8.488488488488489,0.7731862561887128,,
849,20.0,8.498498498498499,0.7513793156317587,,
850,20.0,8.508508508508509,0.7343020078021685,,
851,20.0,8.518518518518519,0.6806240079782295,,
852,20.0,8.528528528528529,0.6562207736317093,,
853,20.0,8.538538538538539,0.6091189231399106,,
854,20.0,8.548548548548549,0.5709928276838999,,
855,20.0,8.558558558558559,0.5213757422474002,,
856,20.0,8.568568568568569,0.4695950513149833,,
857,20.0,8.578578578578579,0.4223781780158336,,
858,20.0,8.588588588588589,0.3673179026654991,,
859,20.0,8.598598598598599,0.3275711904694861,,
860,20.0,8.608608608608609,0.2666353545518368,,
861,20.0,8.618618618618619,0.2247033785272012,,
862,20.0,8.62862862862863,0.1936822243446958,,
863,20.0,8.63863863863864,0.1458664140503236,,
864,20.0,8.64864864864865,0.1128392210421282,,
865,20.0,8.65865865865866,0.0878095987181444,,
866,20.0,8.66866866866867,0.0596762651646707,,
867,20.0,8.67867867867868,0.0504642510278176,,
868,20.0,8.68868868868869,0.0266014060891739,,
869,20.0,8.6986986986987,0.0266645543950621,,
870,20.0,8.70870870870871,0.0075634965640179,,
871,20.0,8.71871871871872,-0.0003339772491257,,
872,20.0,8.72872872872873,-0.0016565760501523,,
873,20.0,8.73873873873874,0.0032675409639204,,
874,20.0,8.74874874874875,0.0030359625025424,,
875,20.0,8.75875875875876,0.0010218742762374,,
876,20.0,8.76876876876877,0.0003153200710091,,
877,20.0,8.77877877877878,-0.0055208547812301,,
878,20.0,8.78878878878879,-0.0025510845749804,,
879,20.0,8.7987987987988,-0.0172064032065295,,
880,20.0,8.80880880880881,-0.0255078786686396,,
881,20.0,8.81881881881882,-0.0345191594824289,,
882,20.0,8.82882882882883,-0.0547962148786825,,
883,20.0,8.83883883883884,-0.0760681543299922,,
884,20.0,8.84884884884885,-0.1030005279978483,,
885,20.0,8.85885885885886,-0.138672254454312,,
886,20.0,8.86886886886887,-0.1745123517186853,,
887,20.0,8.87887887887888,-0.2144822492922918,,
888,20.0,8.88888888888889,-0.2678529104962697,,
889,20.0,8.8988988988989,-0.3167044690321524,,
890,20.0,8.90890890890891,-0.3553568512677277,,
891,20.0,8.91891891891892,-0.4019837739071905,,
892,20.0,8.92892892892893,-0.456064838455032,,
893,20.0,8.93893893893894,-0.5052164262528096,,
894,20.0,8.94894894894895,-0.5525530872646466,,
895,20.0,8.95895895895896,-0.6015915857421135,,
896,20.0,8.96896896896897,-0.6541663775541392,,
897,20.0,8.97897897897898,-0.6804493907052833,,
898,20.0,8.98898898898899,-0.7228672494827545,,
899,20.0,8.998998998999,-0.7428496957142255,,
900,20.0,9.00900900900901,-0.761592210429072,,
901,20.0,9.01901901901902,-0.7842961124074284,,
902,20.0,9.02902902902903,-0.7808296482701572,,
903,20.0,9.03903903903904,-0.7715642999738772,,
904,20.0,9.04904904904905,-0.7515225950758476,,
905,20.0,9.05905905905906,-0.7362286172820265,,
906,20.0,9.06906906906907,-0.6966074644959543,,
907,20.0,9.07907907907908,-0.6597894453292491,,
908,20.0,9.08908908908909,-0.5982398117827115,,
909,20.0,9.0990990990991,-0.5447190226263006,,
910,20.0,9.10910910910911,-0.4794534425724315,,
911,20.0,9.11911911911912,-0.4139769190000318,,
912,20.0,9.12912912912913,-0.3332261501207127,,
913,20.0,9.13913913913914,-0.2444419114824542,,
914,20.0,9.14914914914915,-0.1528584381348788,,
915,20.0,9.15915915915916,-0.0673371530908551,,
916,20.0,9.16916916916917,0.0198566637806464,,
917,20.0,9.17917917917918,0.1136186456005605,,
918,20.0,9.18918918918919,0.2029854340240885,,
919,20.0,9.1991991991992,0.2832648777153218,,
920,20.0,9.20920920920921,0.3621229855829415,,
921,20.0,9.21921921921922,0.4438836946373335,,
922,20.0,9.22922922922923,0.5263764482407642,,
923,20.0,9.23923923923924,0.5834319754451531,,
924,20.0,9.24924924924925,0.6374983412499968,,
925,20.0,9.25925925925926,0.6790785738381434,,
926,20.0,9.26926926926927,0.7297726835723334,,
927,20.0,9.27927927927928,0.7464745736219164,,
928,20.0,9.28928928928929,0.7657194881067607,,
929,20.0,9.2992992992993,0.7850250066970467,,
930,20.0,9.30930930930931,0.7826400385940171,,
931,20.0,9.31931931931932,0.7707437079028263,,
932,20.0,9.32932932932933,0.7537413234895415,,
933,20.0,9.33933933933934,0.7389073118230155,,
934,20.0,9.34934934934935,0.6979625352783626,,
935,20.0,9.35935935935936,0.6590663727365327,,
936,20.0,9.36936936936937,0.6207917305114588,,
937,20.0,9.37937937937938,0.5844961662052316,,
938,20.0,9.38938938938939,0.5353421155912924,,
939,20.0,9.3993993993994,0.4869438919498526,,
940,20.0,9.40940940940941,0.4350489665245599,,
941,20.0,9.41941941941942,0.379575262163892,,
942,20.0,9.42942942942943,0.3374089707549988,,
943,20.0,9.43943943943944,0.287279359193469,,
944,20.0,9.44944944944945,0.243479625988767,,
945,20.0,9.45945945945946,0.1890398556124712,,
946,20.0,9.46946946946947,0.1548790054162775,,
947,20.0,9.47947947947948,0.1185552163970562,,
948,20.0,9.48948948948949,0.0882015337791319,,
949,20.0,9.4994994994995,0.0770547660586514,,
950,20.0,9.50950950950951,0.0509886259896367,,
951,20.0,9.51951951951952,0.0366559827195827,,
952,20.0,9.52952952952953,0.0240623020438509,,
953,20.0,9.53953953953954,0.0038741983726685,,
954,20.0,9.54954954954955,0.0064427791578775,,
955,20.0,9.55955955955956,0.0039908504898693,,
956,20.0,9.56956956956957,0.0074513887824791,,
957,20.0,9.57957957957958,-0.0003424236396646,,
958,20.0,9.58958958958959,9.365442224737054e-05,,
959,20.0,9.5995995995996,-0.0058482178517916,,
960,20.0,9.60960960960961,-0.0063074660940414,,
961,20.0,9.61961961961962,-0.009657121670866,,
962,20.0,9.62962962962963,-0.0154997134252884,,
963,20.0,9.63963963963964,-0.0219722624011885,,
964,20.0,9.64964964964965,-0.041084986957207,,
965,20.0,9.65965965965966,-0.045414607028452,,
966,20.0,9.66966966966967,-0.0751263145850945,,
967,20.0,9.67967967967968,-0.1026390843087406,,
968,20.0,9.68968968968969,-0.1333162553033118,,
969,20.0,9.6996996996997,-0.1628769321286422,,
970,20.0,9.70970970970971,-0.2121592356198803,,
971,20.0,9.71971971971972,-0.2516154219713336,,
972,20.0,9.72972972972973,-0.2790409838517778,,
973,20.0,9.73973973973974,-0.3347501871421411,,
974,20.0,9.74974974974975,-0.3899548738674141,,
975,20.0,9.75975975975976,-0.4424691608435996,,
976,20.0,9.76976976976977,-0.496507620428767,,
977,20.0,9.77977977977978,-0.5366898137447637,,
978,20.0,9.78978978978979,-0.5887246540484551,,
979,20.0,9.7997997997998,-0.6369739643432608,,
980,20.0,9.80980980980981,-0.6736906632512383,,
981,20.0,9.81981981981982,-0.7150375211687124,,
982,20.0,9.82982982982983,-0.7406753516079585,,
983,20.0,9.83983983983984,-0.7597225324577754,,
984,20.0,9.84984984984985,-0.7758394466039197,,
985,20.0,9.85985985985986,-0.7828021233598431,,
986,20.0,9.86986986986987,-0.7740875712361215,,
987,20.0,9.87987987987988,-0.7690312411206786,,
988,20.0,9.88988988988989,-0.7425507006606427,,
989,20.0,9.8998998998999,-0.715779369446072,,
990,20.0,9.90990990990991,-0.6665918090214656,,
991,20.0,9.91991991991992,-0.6187672905918494,,
992,20.0,9.92992992992993,-0.5722849452048974,,
993,20.0,9.93993993993994,-0.4941070467165717,,
994,20.0,9.94994994994995,-0.4312180100445348,,
995,20.0,9.95995995995996,-0.3446926489013943,,
996,20.0,9.96996996996997,-0.2596664102168167,,
997,20.0,9.97997997997998,-0.1828012552545614,,
998,20.0,9.98998998998999,-0.0946818172910192,,
999,20.0,10.0,0.0034154312832159,,
0,,,,71.0,37.98588026
1,,,,87.0,63.99203399
2,,,,65.0,87.45502852
3,,,,76.0,59.90844847
4,,,,93.0,60.70464529
5,,,,75.0,31.85818104
6,,,,98.0,27.55325512
7,,,,68.0,88.21327519
8,,,,86.0,46.05414594
9,,,,61.0,90.14936228
10,,,,79.0,40.73856427
11,,,,91.0,63.75629742
12,,,,86.0,76.43595811
13,,,,65.0,88.12241627
14,,,,90.0,59.40902284
15,,,,80.0,90.7207735
16,,,,86.0,20.09507654
17,,,,92.0,37.07977298
18,,,,66.0,97.32098137
19,,,,67.0,99.56933584
