,Subject_ID,Time,PPG,HR,HRV
0,7.0,0.0,-0.008967531780178,,
1,7.0,0.01001001001001,0.0884987421165443,,
2,7.0,0.02002002002002,0.1806872004719498,,
3,7.0,0.03003003003003,0.2677786025559763,,
4,7.0,0.04004004004004,0.3401268887938182,,
5,7.0,0.05005005005005,0.4304805005881463,,
6,7.0,0.06006006006006,0.5045825063185245,,
7,7.0,0.07007007007007,0.5678360856861173,,
8,7.0,0.08008008008008,0.6249332500948259,,
9,7.0,0.09009009009009,0.6715900334259465,,
10,7.0,0.1001001001001,0.7064716967687248,,
11,7.0,0.1101101101101101,0.7529562445474323,,
12,7.0,0.1201201201201201,0.7655599702068224,,
13,7.0,0.1301301301301301,0.7746091119355851,,
14,7.0,0.1401401401401401,0.7787077287059366,,
15,7.0,0.1501501501501501,0.7806410723163569,,
16,7.0,0.1601601601601601,0.7535208677813705,,
17,7.0,0.1701701701701701,0.7409493746481004,,
18,7.0,0.1801801801801801,0.7071849173337675,,
19,7.0,0.1901901901901901,0.6707332185970278,,
20,7.0,0.2002002002002001,0.6322593545729602,,
21,7.0,0.2102102102102102,0.5929267828860096,,
22,7.0,0.2202202202202202,0.55003754190316,,
23,7.0,0.2302302302302302,0.4914738383252717,,
24,7.0,0.2402402402402402,0.4477623928973123,,
25,7.0,0.2502502502502503,0.3923204377104816,,
26,7.0,0.2602602602602603,0.3408284383883178,,
27,7.0,0.2702702702702703,0.2968222263014325,,
28,7.0,0.2802802802802803,0.2446121702236007,,
29,7.0,0.2902902902902903,0.2001845252851412,,
30,7.0,0.3003003003003003,0.1759442883541848,,
31,7.0,0.3103103103103103,0.1262228688670353,,
32,7.0,0.3203203203203203,0.097598473114551,,
33,7.0,0.3303303303303303,0.0762731210951782,,
34,7.0,0.3403403403403403,0.0585772914998926,,
35,7.0,0.3503503503503503,0.032186175495407,,
36,7.0,0.3603603603603603,0.0254289086366252,,
37,7.0,0.3703703703703703,0.006555886243479,,
38,7.0,0.3803803803803803,0.0020546179679069,,
39,7.0,0.3903903903903903,0.0077293768677936,,
40,7.0,0.4004004004004003,0.0026254491500353,,
41,7.0,0.4104104104104104,0.00387410797542,,
42,7.0,0.4204204204204204,0.0003224793544526,,
43,7.0,0.4304304304304304,0.0097059284199084,,
44,7.0,0.4404404404404404,0.0010755742762816,,
45,7.0,0.4504504504504504,-0.0070184479806127,,
46,7.0,0.4604604604604604,-0.015320325182571,,
47,7.0,0.4704704704704704,-0.018204774950118,,
48,7.0,0.4804804804804805,-0.0369024787221595,,
49,7.0,0.4904904904904905,-0.0529644201085409,,
50,7.0,0.5005005005005005,-0.0763696423566721,,
51,7.0,0.5105105105105106,-0.0928120793594646,,
52,7.0,0.5205205205205206,-0.1290865961204658,,
53,7.0,0.5305305305305306,-0.1574868239307806,,
54,7.0,0.5405405405405406,-0.1933683078325815,,
55,7.0,0.5505505505505506,-0.2309463584355174,,
56,7.0,0.5605605605605606,-0.2801944546223471,,
57,7.0,0.5705705705705706,-0.3344398955810274,,
58,7.0,0.5805805805805806,-0.3922497794764926,,
59,7.0,0.5905905905905906,-0.4245304852140364,,
60,7.0,0.6006006006006006,-0.4795717689936595,,
61,7.0,0.6106106106106106,-0.5350006227814962,,
62,7.0,0.6206206206206206,-0.5788953660010346,,
63,7.0,0.6306306306306306,-0.6252360534997554,,
64,7.0,0.6406406406406406,-0.6623543405003699,,
65,7.0,0.6506506506506506,-0.7017702478167926,,
66,7.0,0.6606606606606606,-0.7342402536005599,,
67,7.0,0.6706706706706707,-0.7527162010464188,,
68,7.0,0.6806806806806807,-0.7685543874491682,,
69,7.0,0.6906906906906907,-0.7797085692643329,,
70,7.0,0.7007007007007007,-0.772863423738059,,
71,7.0,0.7107107107107107,-0.7640555849022217,,
72,7.0,0.7207207207207207,-0.7466996406257628,,
73,7.0,0.7307307307307307,-0.7180430620643163,,
74,7.0,0.7407407407407407,-0.675602114522087,,
75,7.0,0.7507507507507507,-0.6346260586338093,,
76,7.0,0.7607607607607607,-0.5800090029178173,,
77,7.0,0.7707707707707707,-0.5123147029936419,,
78,7.0,0.7807807807807807,-0.4421245934067335,,
79,7.0,0.7907907907907907,-0.3671297121814418,,
80,7.0,0.8008008008008007,-0.2851215970952935,,
81,7.0,0.8108108108108109,-0.2032493680922246,,
82,7.0,0.8208208208208209,-0.1108303724883318,,
83,7.0,0.8308308308308309,-0.0238321324266273,,
84,7.0,0.8408408408408409,0.0657150349856905,,
85,7.0,0.8508508508508509,0.1623063478445315,,
86,7.0,0.8608608608608609,0.2517398437539988,,
87,7.0,0.8708708708708709,0.3263521672620186,,
88,7.0,0.8808808808808809,0.4010347437418565,,
89,7.0,0.8908908908908909,0.4891463034991301,,
90,7.0,0.9009009009009008,0.545176551613715,,
91,7.0,0.9109109109109108,0.606948942746885,,
92,7.0,0.9209209209209208,0.6544785511565,,
93,7.0,0.9309309309309308,0.7099625847394908,,
94,7.0,0.9409409409409408,0.7357919487640285,,
95,7.0,0.950950950950951,0.7579301077605162,,
96,7.0,0.960960960960961,0.7783496115326807,,
97,7.0,0.970970970970971,0.7772105192535198,,
98,7.0,0.980980980980981,0.7847827185112307,,
99,7.0,0.990990990990991,0.7540528811502016,,
100,7.0,1.001001001001001,0.7412783576601718,,
101,7.0,1.011011011011011,0.7215150645940154,,
102,7.0,1.021021021021021,0.6810256510947567,,
103,7.0,1.031031031031031,0.6438195653020765,,
104,7.0,1.0410410410410411,0.6021277612081527,,
105,7.0,1.0510510510510511,0.5545673342663728,,
106,7.0,1.0610610610610611,0.5080026194439539,,
107,7.0,1.0710710710710711,0.4589997142535472,,
108,7.0,1.0810810810810811,0.4000806712699111,,
109,7.0,1.0910910910910911,0.3514028320819623,,
110,7.0,1.1011011011011012,0.3053124696005195,,
111,7.0,1.1111111111111112,0.2533052024088431,,
112,7.0,1.1211211211211212,0.2153327223940971,,
113,7.0,1.1311311311311312,0.1725858837815422,,
114,7.0,1.1411411411411412,0.1457336329783252,,
115,7.0,1.1511511511511512,0.114766058832161,,
116,7.0,1.1611611611611612,0.0805477187919455,,
117,7.0,1.1711711711711712,0.060841322640875,,
118,7.0,1.1811811811811812,0.0401177180239076,,
119,7.0,1.1911911911911912,0.0247827056669706,,
120,7.0,1.2012012012012012,0.0177831181754588,,
121,7.0,1.2112112112112112,0.0053118645223596,,
122,7.0,1.2212212212212212,0.0014602470622648,,
123,7.0,1.2312312312312312,0.0017035793112137,,
124,7.0,1.2412412412412412,-0.0068913458257229,,
125,7.0,1.2512512512512513,-0.0066380863063821,,
126,7.0,1.2612612612612613,0.0043361575930469,,
127,7.0,1.2712712712712713,-0.0015658103411135,,
128,7.0,1.2812812812812813,0.0008562806172756,,
129,7.0,1.2912912912912913,-0.0034633621066106,,
130,7.0,1.3013013013013013,-0.0154236302070346,,
131,7.0,1.3113113113113113,-0.027722385134459,,
132,7.0,1.3213213213213213,-0.045500592617499,,
133,7.0,1.3313313313313313,-0.0589774856430493,,
134,7.0,1.3413413413413413,-0.0866030193648443,,
135,7.0,1.351351351351351,-0.1140164775392459,,
136,7.0,1.361361361361361,-0.1528148855187126,,
137,7.0,1.371371371371371,-0.1791497118631695,,
138,7.0,1.3813813813813811,-0.2178985345927475,,
139,7.0,1.3913913913913911,-0.2746834154117278,,
140,7.0,1.4014014014014011,-0.3107191605463528,,
141,7.0,1.4114114114114114,-0.3751509796801749,,
142,7.0,1.4214214214214214,-0.4144218259699609,,
143,7.0,1.4314314314314314,-0.4685427051077685,,
144,7.0,1.4414414414414414,-0.5239345004910189,,
145,7.0,1.4514514514514514,-0.5621198882580706,,
146,7.0,1.4614614614614614,-0.6163422242390284,,
147,7.0,1.4714714714714714,-0.6543533913932459,,
148,7.0,1.4814814814814814,-0.7083001649756417,,
149,7.0,1.4914914914914914,-0.7304108798969963,,
150,7.0,1.5015015015015014,-0.7552679114564612,,
151,7.0,1.5115115115115114,-0.7608975396926401,,
152,7.0,1.5215215215215214,-0.7740408161080051,,
153,7.0,1.5315315315315314,-0.7799179545336159,,
154,7.0,1.5415415415415414,-0.7752948781467413,,
155,7.0,1.5515515515515514,-0.7617941769103981,,
156,7.0,1.5615615615615617,-0.7321535810124922,,
157,7.0,1.5715715715715717,-0.6868513507520526,,
158,7.0,1.5815815815815817,-0.6399971935799325,,
159,7.0,1.5915915915915917,-0.5793022954821914,,
160,7.0,1.6016016016016017,-0.5328579127339937,,
161,7.0,1.6116116116116117,-0.4582674559918545,,
162,7.0,1.6216216216216215,-0.3916789492785218,,
163,7.0,1.6316316316316315,-0.2982427534333043,,
164,7.0,1.6416416416416415,-0.2249312918109283,,
165,7.0,1.6516516516516515,-0.138470867366972,,
166,7.0,1.6616616616616615,-0.0433747869135756,,
167,7.0,1.6716716716716715,0.042166623004006,,
168,7.0,1.6816816816816818,0.1324543952338125,,
169,7.0,1.6916916916916918,0.2246472892440274,,
170,7.0,1.7017017017017018,0.3070794385676749,,
171,7.0,1.7117117117117118,0.3792310852856174,,
172,7.0,1.7217217217217218,0.4609174686178461,,
173,7.0,1.7317317317317318,0.530503462552071,,
174,7.0,1.7417417417417418,0.589044353961982,,
175,7.0,1.7517517517517518,0.6504582890992258,,
176,7.0,1.7617617617617618,0.688968808766217,,
177,7.0,1.7717717717717718,0.7342253124077418,,
178,7.0,1.7817817817817818,0.750011109130156,,
179,7.0,1.7917917917917918,0.7764358908678487,,
180,7.0,1.8018018018018016,0.7796065922086252,,
181,7.0,1.811811811811812,0.7786571915875085,,
182,7.0,1.8218218218218216,0.7639363406460302,,
183,7.0,1.831831831831832,0.7494752679341824,,
184,7.0,1.8418418418418416,0.7238180992545299,,
185,7.0,1.851851851851852,0.6848246755013799,,
186,7.0,1.8618618618618616,0.6491755081377919,,
187,7.0,1.871871871871872,0.6092639918607694,,
188,7.0,1.8818818818818817,0.562111704031034,,
189,7.0,1.891891891891892,0.5123502520978438,,
190,7.0,1.901901901901902,0.4743111823805938,,
191,7.0,1.911911911911912,0.4154237462786505,,
192,7.0,1.921921921921922,0.3634332175501883,,
193,7.0,1.931931931931932,0.3275962567270624,,
194,7.0,1.941941941941942,0.2686005311216184,,
195,7.0,1.951951951951952,0.2233172979674079,,
196,7.0,1.961961961961962,0.1825844796820941,,
197,7.0,1.971971971971972,0.1497389845464718,,
198,7.0,1.981981981981982,0.115667575847081,,
199,7.0,1.991991991991992,0.0823455405723962,,
200,7.0,2.002002002002002,0.0659534000838967,,
201,7.0,2.012012012012012,0.0413498217733346,,
202,7.0,2.022022022022022,0.0256833114000148,,
203,7.0,2.032032032032032,0.0132354762752836,,
204,7.0,2.042042042042042,0.0044027150636729,,
205,7.0,2.052052052052052,0.0137240281163886,,
206,7.0,2.062062062062062,0.0071717545172755,,
207,7.0,2.072072072072072,0.0018443647525548,,
208,7.0,2.0820820820820822,-0.0011871838080076,,
209,7.0,2.092092092092092,-0.0029748610620641,,
210,7.0,2.1021021021021022,-0.001444674205136,,
211,7.0,2.112112112112112,-0.0002300094751091,,
212,7.0,2.1221221221221223,-0.0045078166117781,,
213,7.0,2.1321321321321323,-0.0147047931565865,,
214,7.0,2.1421421421421423,-0.0301721299781366,,
215,7.0,2.1521521521521523,-0.0344467571798526,,
216,7.0,2.1621621621621623,-0.0517399161140755,,
217,7.0,2.1721721721721723,-0.0749065044768026,,
218,7.0,2.1821821821821823,-0.1124823561079492,,
219,7.0,2.1921921921921923,-0.1416200232741848,,
220,7.0,2.2022022022022023,-0.1792905084641271,,
221,7.0,2.2122122122122123,-0.2162058822986863,,
222,7.0,2.2222222222222223,-0.2535910530682619,,
223,7.0,2.2322322322322323,-0.3095827493311629,,
224,7.0,2.2422422422422423,-0.357593299882616,,
225,7.0,2.2522522522522523,-0.4110535425543729,,
226,7.0,2.2622622622622623,-0.4547939742079268,,
227,7.0,2.2722722722722724,-0.5116707263865271,,
228,7.0,2.2822822822822824,-0.5624281654920715,,
229,7.0,2.2922922922922924,-0.6010745773093279,,
230,7.0,2.3023023023023024,-0.6458730382854557,,
231,7.0,2.3123123123123124,-0.6905370137377785,,
232,7.0,2.3223223223223224,-0.7227186676207487,,
233,7.0,2.3323323323323324,-0.7399021402887119,,
234,7.0,2.3423423423423424,-0.7557275691854227,,
235,7.0,2.3523523523523524,-0.7708990786217099,,
236,7.0,2.3623623623623624,-0.7874968189403201,,
237,7.0,2.3723723723723724,-0.7690809666707407,,
238,7.0,2.3823823823823824,-0.7666637531295033,,
239,7.0,2.3923923923923924,-0.7351725260605707,,
240,7.0,2.4024024024024024,-0.7014524048493518,,
241,7.0,2.4124124124124124,-0.6584505246230811,,
242,7.0,2.4224224224224224,-0.6079502532639806,,
243,7.0,2.4324324324324325,-0.5467907793232873,,
244,7.0,2.4424424424424425,-0.4828815760158366,,
245,7.0,2.4524524524524525,-0.4119115856257529,,
246,7.0,2.4624624624624625,-0.3336700843300863,,
247,7.0,2.4724724724724725,-0.2331287478158303,,
248,7.0,2.4824824824824825,-0.157250744807435,,
249,7.0,2.4924924924924925,-0.064794748217922,,
250,7.0,2.5025025025025025,0.0202710705295243,,
251,7.0,2.5125125125125125,0.1113321631775528,,
252,7.0,2.5225225225225225,0.2060171020216926,,
253,7.0,2.5325325325325325,0.2885055602742252,,
254,7.0,2.5425425425425425,0.3712463088774924,,
255,7.0,2.5525525525525525,0.4488966882975708,,
256,7.0,2.5625625625625625,0.5212971738470785,,
257,7.0,2.5725725725725725,0.5848188391416046,,
258,7.0,2.5825825825825826,0.6439419675533608,,
259,7.0,2.592592592592593,0.6895077843154008,,
260,7.0,2.6026026026026026,0.7163738965411339,,
261,7.0,2.612612612612613,0.7503889115174451,,
262,7.0,2.6226226226226226,0.7722897163314156,,
263,7.0,2.6326326326326326,0.776679449012887,,
264,7.0,2.6426426426426426,0.779059170588951,,
265,7.0,2.6526526526526526,0.7706597592767604,,
266,7.0,2.6626626626626626,0.7633954846577694,,
267,7.0,2.6726726726726726,0.7353156293800674,,
268,7.0,2.6826826826826826,0.6973913372403868,,
269,7.0,2.6926926926926926,0.657336288233086,,
270,7.0,2.702702702702702,0.6185082621110948,,
271,7.0,2.7127127127127126,0.5809809169037017,,
272,7.0,2.722722722722722,0.5252972172551547,,
273,7.0,2.7327327327327327,0.4747672722902787,,
274,7.0,2.7427427427427427,0.4262978116774604,,
275,7.0,2.7527527527527527,0.3837430152916599,,
276,7.0,2.7627627627627627,0.3199968011182031,,
277,7.0,2.7727727727727727,0.2842531822861835,,
278,7.0,2.7827827827827827,0.2355827736722964,,
279,7.0,2.7927927927927927,0.1964963356209596,,
280,7.0,2.8028028028028027,0.1530763529604694,,
281,7.0,2.8128128128128127,0.1191894421396263,,
282,7.0,2.8228228228228227,0.0863579598274291,,
283,7.0,2.8328328328328327,0.0661431939943959,,
284,7.0,2.8428428428428427,0.0538875718728452,,
285,7.0,2.8528528528528527,0.0266009887172193,,
286,7.0,2.8628628628628627,0.0178440824459387,,
287,7.0,2.8728728728728727,0.0104922871721388,,
288,7.0,2.8828828828828827,-0.0052011004885318,,
289,7.0,2.8928928928928928,0.0027175109074198,,
290,7.0,2.9029029029029028,0.0061123234795264,,
291,7.0,2.9129129129129128,-4.621643251563121e-05,,
292,7.0,2.9229229229229228,0.0029364274587389,,
293,7.0,2.932932932932933,-0.0063066747611291,,
294,7.0,2.942942942942943,-0.0039737281599071,,
295,7.0,2.952952952952953,-0.0093307306214208,,
296,7.0,2.962962962962963,-0.0191505085218205,,
297,7.0,2.972972972972973,-0.0207480851728772,,
298,7.0,2.982982982982983,-0.0398641042513829,,
299,7.0,2.992992992992993,-0.0516981496940731,,
300,7.0,3.003003003003003,-0.0799413492615529,,
301,7.0,3.013013013013013,-0.0981452195253987,,
302,7.0,3.023023023023023,-0.1251125900575666,,
303,7.0,3.033033033033033,-0.160956938374915,,
304,7.0,3.043043043043043,-0.2014495890694087,,
305,7.0,3.053053053053053,-0.2513256733742627,,
306,7.0,3.063063063063063,-0.3010373804070246,,
307,7.0,3.073073073073073,-0.3501515810306738,,
308,7.0,3.083083083083083,-0.3948901248682685,,
309,7.0,3.093093093093093,-0.4403535296966566,,
310,7.0,3.103103103103103,-0.4932875466172762,,
311,7.0,3.113113113113113,-0.5378003682655215,,
312,7.0,3.123123123123123,-0.5947526197396545,,
313,7.0,3.133133133133133,-0.6411434779406843,,
314,7.0,3.143143143143143,-0.6765785662021437,,
315,7.0,3.153153153153153,-0.7025319476960041,,
316,7.0,3.163163163163163,-0.7406950631961962,,
317,7.0,3.173173173173173,-0.7551878143566374,,
318,7.0,3.183183183183183,-0.7723813853000716,,
319,7.0,3.193193193193193,-0.785341987204358,,
320,7.0,3.203203203203203,-0.7740980601146205,,
321,7.0,3.2132132132132134,-0.7617575502323399,,
322,7.0,3.2232232232232234,-0.7406169899144731,,
323,7.0,3.2332332332332334,-0.70691407946468,,
324,7.0,3.2432432432432434,-0.6691281756469124,,
325,7.0,3.253253253253253,-0.6179668150648304,,
326,7.0,3.2632632632632634,-0.5631376202314903,,
327,7.0,3.273273273273273,-0.4922606935187345,,
328,7.0,3.2832832832832834,-0.4230242865341883,,
329,7.0,3.293293293293293,-0.3581862918608343,,
330,7.0,3.3033033033033035,-0.268482202895931,,
331,7.0,3.313313313313313,-0.1791967598240974,,
332,7.0,3.3233233233233235,-0.0896363740306769,,
333,7.0,3.333333333333333,-0.0025857020695341,,
334,7.0,3.3433433433433435,0.0919285129722529,,
335,7.0,3.353353353353353,0.1820492066308735,,
336,7.0,3.3633633633633635,0.2652691187815665,,
337,7.0,3.373373373373373,0.3504618654745545,,
338,7.0,3.3833833833833835,0.4280984612270477,,
339,7.0,3.393393393393393,0.4998079719920879,,
340,7.0,3.4034034034034035,0.5596943914920399,,
341,7.0,3.413413413413413,0.6225342295010402,,
342,7.0,3.4234234234234235,0.6779819364245872,,
343,7.0,3.433433433433433,0.7077329291045822,,
344,7.0,3.443443443443444,0.7422871085596453,,
345,7.0,3.4534534534534536,0.7553163814984792,,
346,7.0,3.463463463463464,0.777128152229281,,
347,7.0,3.4734734734734736,0.7817748275189805,,
348,7.0,3.483483483483484,0.7655972934554474,,
349,7.0,3.4934934934934936,0.7574431830844072,,
350,7.0,3.503503503503504,0.7379750620690866,,
351,7.0,3.5135135135135136,0.7110257527444451,,
352,7.0,3.523523523523524,0.6705662433216802,,
353,7.0,3.5335335335335336,0.6327329835500759,,
354,7.0,3.543543543543544,0.5951637555685171,,
355,7.0,3.5535535535535536,0.5440406151624487,,
356,7.0,3.563563563563564,0.4964132711086655,,
357,7.0,3.5735735735735736,0.4449250937336939,,
358,7.0,3.583583583583584,0.3952415477937626,,
359,7.0,3.5935935935935936,0.3366288877906609,,
360,7.0,3.603603603603604,0.2934632338372889,,
361,7.0,3.6136136136136137,0.2539751699028571,,
362,7.0,3.623623623623624,0.1926957675057094,,
363,7.0,3.6336336336336337,0.1703413081243737,,
364,7.0,3.643643643643644,0.1273168924163705,,
365,7.0,3.6536536536536537,0.0930927415106177,,
366,7.0,3.663663663663664,0.0739570749103465,,
367,7.0,3.6736736736736737,0.0542408272524305,,
368,7.0,3.683683683683684,0.0446432782352093,,
369,7.0,3.6936936936936937,0.0239274663438921,,
370,7.0,3.703703703703704,0.0113648078734947,,
371,7.0,3.7137137137137137,0.0035361533328794,,
372,7.0,3.723723723723724,0.0051505254152109,,
373,7.0,3.7337337337337337,0.0078616104053344,,
374,7.0,3.743743743743744,-0.0005159723170115,,
375,7.0,3.7537537537537538,-0.002148294441466,,
376,7.0,3.763763763763764,-0.0029366495885497,,
377,7.0,3.7737737737737738,-0.0003383499276306,,
378,7.0,3.783783783783784,-0.0082281139404393,,
379,7.0,3.793793793793794,-0.0112173562025283,,
380,7.0,3.803803803803804,-0.0222161960815254,,
381,7.0,3.813813813813814,-0.0354715370790624,,
382,7.0,3.823823823823824,-0.0524521696958899,,
383,7.0,3.833833833833834,-0.0691156914781697,,
384,7.0,3.843843843843844,-0.081848561871559,,
385,7.0,3.853853853853854,-0.1235867248580146,,
386,7.0,3.863863863863864,-0.1571885702864511,,
387,7.0,3.873873873873874,-0.1859185020889665,,
388,7.0,3.883883883883884,-0.2342682363606135,,
389,7.0,3.893893893893894,-0.2764371985286154,,
390,7.0,3.903903903903904,-0.3246330433201334,,
391,7.0,3.913913913913914,-0.3782052446295211,,
392,7.0,3.923923923923924,-0.4261624503053771,,
393,7.0,3.933933933933934,-0.4810280887359747,,
394,7.0,3.943943943943944,-0.5236209673365271,,
395,7.0,3.953953953953954,-0.5734578571201412,,
396,7.0,3.963963963963964,-0.6169285312814193,,
397,7.0,3.973973973973974,-0.6604331952851044,,
398,7.0,3.983983983983984,-0.7002864437268594,,
399,7.0,3.993993993993994,-0.7349061880643157,,
400,7.0,4.004004004004004,-0.7648228307089606,,
401,7.0,4.014014014014014,-0.7760508277468464,,
402,7.0,4.024024024024024,-0.7852568080207947,,
403,7.0,4.034034034034034,-0.7743499273680216,,
404,7.0,4.044044044044044,-0.7675465365427837,,
405,7.0,4.054054054054054,-0.7423462611032049,,
406,7.0,4.064064064064064,-0.7204581541303293,,
407,7.0,4.074074074074074,-0.6797577933597571,,
408,7.0,4.084084084084084,-0.6366428440376688,,
409,7.0,4.094094094094094,-0.5719331489481412,,
410,7.0,4.104104104104104,-0.5125776741958157,,
411,7.0,4.114114114114114,-0.4471802992059214,,
412,7.0,4.124124124124124,-0.3722036970689296,,
413,7.0,4.134134134134134,-0.2859350014988016,,
414,7.0,4.144144144144144,-0.1907124197422358,,
415,7.0,4.1541541541541545,-0.1143622748575373,,
416,7.0,4.1641641641641645,-0.023615550095769,,
417,7.0,4.174174174174175,0.0725605950123421,,
418,7.0,4.1841841841841845,0.1608331836839961,,
419,7.0,4.1941941941941945,0.2450630850542531,,
420,7.0,4.2042042042042045,0.3218567500458328,,
421,7.0,4.214214214214215,0.4057108380457276,,
422,7.0,4.2242242242242245,0.4873187049941342,,
423,7.0,4.2342342342342345,0.5508453842701567,,
424,7.0,4.2442442442442445,0.6101109783893157,,
425,7.0,4.254254254254255,0.6497822337148085,,
426,7.0,4.2642642642642645,0.6929438176402504,,
427,7.0,4.2742742742742745,0.7424467618692249,,
428,7.0,4.2842842842842845,0.7637105138497298,,
429,7.0,4.294294294294295,0.7726420215073347,,
430,7.0,4.3043043043043046,0.7726025955350311,,
431,7.0,4.314314314314315,0.7744127062556777,,
432,7.0,4.324324324324325,0.7617189281266356,,
433,7.0,4.334334334334335,0.7502270420668332,,
434,7.0,4.344344344344345,0.7113792678663998,,
435,7.0,4.354354354354355,0.6839616815091312,,
436,7.0,4.364364364364365,0.647947773633451,,
437,7.0,4.374374374374375,0.6060960862020954,,
438,7.0,4.384384384384385,0.5491878556640211,,
439,7.0,4.394394394394395,0.5122838973064667,,
440,7.0,4.404404404404405,0.4597579046980289,,
441,7.0,4.414414414414415,0.4031783148304888,,
442,7.0,4.424424424424425,0.3483574995632466,,
443,7.0,4.434434434434435,0.3076836827168337,,
444,7.0,4.444444444444445,0.2642661192142216,,
445,7.0,4.454454454454455,0.2177708433911407,,
446,7.0,4.464464464464465,0.1683561676359882,,
447,7.0,4.474474474474475,0.1482852293012277,,
448,7.0,4.484484484484485,0.1125116993443032,,
449,7.0,4.494494494494495,0.0895649091138599,,
450,7.0,4.504504504504505,0.0606482481605209,,
451,7.0,4.514514514514515,0.0403505991990873,,
452,7.0,4.524524524524525,0.0288817721097822,,
453,7.0,4.534534534534535,0.0195144517645923,,
454,7.0,4.544544544544545,0.014281572882486,,
455,7.0,4.554554554554555,0.004017010003452,,
456,7.0,4.564564564564565,0.0030066082471955,,
457,7.0,4.574574574574575,-0.0041251467082717,,
458,7.0,4.584584584584585,0.003896035629148,,
459,7.0,4.594594594594595,0.0002136751834183,,
460,7.0,4.604604604604605,-0.0014524284998415,,
461,7.0,4.614614614614615,0.0046247891078239,,
462,7.0,4.624624624624625,-0.0083045459920555,,
463,7.0,4.634634634634635,-0.0199878170753637,,
464,7.0,4.644644644644645,-0.0234523800246054,,
465,7.0,4.654654654654655,-0.0332555899633916,,
466,7.0,4.664664664664665,-0.0635124904182062,,
467,7.0,4.674674674674675,-0.0863619591256711,,
468,7.0,4.684684684684685,-0.1017940070207142,,
469,7.0,4.694694694694695,-0.1465455804796303,,
470,7.0,4.704704704704705,-0.1920788627431801,,
471,7.0,4.714714714714715,-0.2330725763073463,,
472,7.0,4.724724724724725,-0.2712518558938308,,
473,7.0,4.734734734734735,-0.3234982184971797,,
474,7.0,4.744744744744745,-0.3591973698265284,,
475,7.0,4.754754754754755,-0.4153374574346223,,
476,7.0,4.764764764764765,-0.4680872400760901,,
477,7.0,4.774774774774775,-0.521231637180109,,
478,7.0,4.784784784784785,-0.5697670139320752,,
479,7.0,4.794794794794795,-0.6115326916853157,,
480,7.0,4.804804804804805,-0.6514673173472811,,
481,7.0,4.814814814814815,-0.680222150749173,,
482,7.0,4.824824824824825,-0.7184743193047917,,
483,7.0,4.834834834834835,-0.7464208493988277,,
484,7.0,4.844844844844845,-0.7640070889799662,,
485,7.0,4.854854854854855,-0.7797384591099722,,
486,7.0,4.864864864864865,-0.7810607703176689,,
487,7.0,4.874874874874875,-0.7770818711887855,,
488,7.0,4.884884884884885,-0.7626611990900352,,
489,7.0,4.894894894894895,-0.7224282941743218,,
490,7.0,4.904904904904905,-0.685612813157726,,
491,7.0,4.914914914914915,-0.6420171865063622,,
492,7.0,4.924924924924925,-0.5874379011732115,,
493,7.0,4.934934934934935,-0.5355830170804867,,
494,7.0,4.944944944944945,-0.4720647069056362,,
495,7.0,4.954954954954955,-0.3929747810108788,,
496,7.0,4.964964964964965,-0.3144926956836681,,
497,7.0,4.974974974974975,-0.2191337386901853,,
498,7.0,4.984984984984985,-0.1336366412695987,,
499,7.0,4.994994994994995,-0.0385257568771362,,
500,7.0,5.005005005005005,0.0490333913291807,,
501,7.0,5.015015015015015,0.1254402295678769,,
502,7.0,5.025025025025025,0.228773471484396,,
503,7.0,5.035035035035035,0.307240056534395,,
504,7.0,5.045045045045045,0.3821464110638899,,
505,7.0,5.055055055055055,0.4596579777501391,,
506,7.0,5.065065065065065,0.5399280761635263,,
507,7.0,5.075075075075075,0.595529636232644,,
508,7.0,5.085085085085085,0.646704131620249,,
509,7.0,5.095095095095095,0.6910346752170587,,
510,7.0,5.105105105105105,0.7238339286578844,,
511,7.0,5.115115115115115,0.7431363546863325,,
512,7.0,5.125125125125125,0.7742761206672555,,
513,7.0,5.135135135135135,0.7685397311566422,,
514,7.0,5.145145145145145,0.7816471058110183,,
515,7.0,5.155155155155155,0.7660987452316242,,
516,7.0,5.165165165165165,0.747148853972541,,
517,7.0,5.175175175175175,0.7256584588222734,,
518,7.0,5.185185185185185,0.6976260843217221,,
519,7.0,5.195195195195195,0.6561233828337453,,
520,7.0,5.205205205205205,0.6104914111846701,,
521,7.0,5.215215215215215,0.5715917511424039,,
522,7.0,5.225225225225225,0.5134037096788706,,
523,7.0,5.235235235235235,0.4737498836520187,,
524,7.0,5.245245245245245,0.4270084000548744,,
525,7.0,5.255255255255255,0.3665760002367157,,
526,7.0,5.265265265265265,0.3177392433581943,,
527,7.0,5.275275275275275,0.2755166139715195,,
528,7.0,5.285285285285285,0.2279496844670545,,
529,7.0,5.295295295295295,0.188948760097787,,
530,7.0,5.305305305305305,0.1477846388340159,,
531,7.0,5.315315315315315,0.1160026704616214,,
532,7.0,5.325325325325325,0.0902192397551274,,
533,7.0,5.335335335335335,0.0638494969413427,,
534,7.0,5.345345345345345,0.0426921994115722,,
535,7.0,5.355355355355355,0.0308887873424132,,
536,7.0,5.365365365365365,0.0069033526219017,,
537,7.0,5.375375375375375,0.0102732043166764,,
538,7.0,5.385385385385385,0.0090923138013144,,
539,7.0,5.395395395395395,-0.00433329726839,,
540,7.0,5.405405405405405,-0.0008973380817909,,
541,7.0,5.415415415415415,-0.0004456953940456,,
542,7.0,5.425425425425425,-0.0047053747951713,,
543,7.0,5.435435435435435,-0.0015800422648119,,
544,7.0,5.445445445445445,-0.0052241515458488,,
545,7.0,5.455455455455455,-0.0162844406910528,,
546,7.0,5.465465465465465,-0.0109509611363078,,
547,7.0,5.475475475475475,-0.0170579713310923,,
548,7.0,5.485485485485485,-0.0410183032004784,,
549,7.0,5.495495495495495,-0.0587719005064269,,
550,7.0,5.505505505505505,-0.0849628600436903,,
551,7.0,5.515515515515515,-0.1168630751726957,,
552,7.0,5.525525525525525,-0.1401439347137468,,
553,7.0,5.535535535535535,-0.1752665465888603,,
554,7.0,5.545545545545545,-0.2126442725779463,,
555,7.0,5.555555555555555,-0.259831803757147,,
556,7.0,5.565565565565565,-0.316824036631234,,
557,7.0,5.575575575575575,-0.3542463824709991,,
558,7.0,5.585585585585585,-0.3992288137910588,,
559,7.0,5.595595595595595,-0.4555960641800606,,
560,7.0,5.605605605605605,-0.4992474027747726,,
561,7.0,5.615615615615615,-0.5621604052214431,,
562,7.0,5.625625625625625,-0.602396845301795,,
563,7.0,5.635635635635635,-0.638470181916018,,
564,7.0,5.645645645645645,-0.677010813294883,,
565,7.0,5.655655655655655,-0.7206338135007144,,
566,7.0,5.665665665665665,-0.7483279260770876,,
567,7.0,5.675675675675675,-0.7627534979390678,,
568,7.0,5.685685685685685,-0.7753147511746002,,
569,7.0,5.695695695695696,-0.7783053368371442,,
570,7.0,5.7057057057057055,-0.7807534942898408,,
571,7.0,5.715715715715716,-0.766079554746948,,
572,7.0,5.7257257257257255,-0.7396553955253232,,
573,7.0,5.735735735735736,-0.6929134084932546,,
574,7.0,5.7457457457457455,-0.6601404466037505,,
575,7.0,5.755755755755756,-0.6059911354712579,,
576,7.0,5.7657657657657655,-0.5581422750637537,,
577,7.0,5.775775775775776,-0.4796597066312946,,
578,7.0,5.7857857857857855,-0.4105671583687036,,
579,7.0,5.795795795795796,-0.3233931119270069,,
580,7.0,5.8058058058058055,-0.2410832263397042,,
581,7.0,5.815815815815816,-0.1551454511892505,,
582,7.0,5.8258258258258255,-0.0704841023552391,,
583,7.0,5.835835835835836,0.0335240858662107,,
584,7.0,5.8458458458458455,0.1192174556192111,,
585,7.0,5.855855855855856,0.2008347015108632,,
586,7.0,5.865865865865866,0.2913758079742617,,
587,7.0,5.875875875875876,0.3642840701141475,,
588,7.0,5.885885885885886,0.4463426689232809,,
589,7.0,5.895895895895896,0.522083134845384,,
590,7.0,5.905905905905906,0.5847528461623657,,
591,7.0,5.915915915915916,0.6254560972581114,,
592,7.0,5.925925925925926,0.6782397165139475,,
593,7.0,5.935935935935936,0.7122331035733286,,
594,7.0,5.945945945945946,0.7505274901813189,,
595,7.0,5.955955955955956,0.7674316968758034,,
596,7.0,5.965965965965966,0.7734882802854098,,
597,7.0,5.975975975975976,0.7804915840610193,,
598,7.0,5.985985985985986,0.7722977936253231,,
599,7.0,5.995995995995996,0.7504109797413349,,
600,7.0,6.006006006006006,0.7350422612964009,,
601,7.0,6.016016016016016,0.6961516726624718,,
602,7.0,6.026026026026026,0.6709415495501804,,
603,7.0,6.036036036036036,0.6152941591877159,,
604,7.0,6.046046046046046,0.5861241818687136,,
605,7.0,6.056056056056056,0.5357899650652161,,
606,7.0,6.066066066066066,0.4875980549900156,,
607,7.0,6.076076076076076,0.4289973680423416,,
608,7.0,6.086086086086086,0.379149218227952,,
609,7.0,6.096096096096096,0.3324324271834766,,
610,7.0,6.106106106106106,0.2759165891130076,,
611,7.0,6.116116116116116,0.2347201172557683,,
612,7.0,6.126126126126126,0.2051819153267353,,
613,7.0,6.136136136136136,0.1609540883217087,,
614,7.0,6.146146146146146,0.1295664630054991,,
615,7.0,6.156156156156156,0.0859667017253838,,
616,7.0,6.166166166166166,0.0704718632213135,,
617,7.0,6.176176176176176,0.0485320023715108,,
618,7.0,6.186186186186186,0.0172340921561407,,
619,7.0,6.196196196196196,0.0210287718592293,,
620,7.0,6.206206206206206,0.008070310903482,,
621,7.0,6.216216216216216,0.0029631318852654,,
622,7.0,6.226226226226226,0.0097515801221188,,
623,7.0,6.236236236236236,0.0001609586152423,,
624,7.0,6.246246246246246,0.0053865380294107,,
625,7.0,6.256256256256256,0.00031223965781,,
626,7.0,6.266266266266266,-0.0054412361860408,,
627,7.0,6.276276276276276,-0.0062665667676824,,
628,7.0,6.286286286286286,-0.0057389758679266,,
629,7.0,6.296296296296296,-0.0169935490940953,,
630,7.0,6.306306306306306,-0.0234964163645151,,
631,7.0,6.316316316316316,-0.030748673038005,,
632,7.0,6.326326326326326,-0.0632806805702485,,
633,7.0,6.336336336336336,-0.0749512203219539,,
634,7.0,6.346346346346346,-0.1007361057465352,,
635,7.0,6.356356356356356,-0.1361650396829567,,
636,7.0,6.366366366366366,-0.1771183906760535,,
637,7.0,6.376376376376376,-0.2096059219733246,,
638,7.0,6.386386386386386,-0.2472933887662129,,
639,7.0,6.396396396396396,-0.2987990574079172,,
640,7.0,6.406406406406406,-0.3429631023104381,,
641,7.0,6.416416416416417,-0.3937373389574047,,
642,7.0,6.426426426426427,-0.4401563770387576,,
643,7.0,6.436436436436437,-0.4857674713758293,,
644,7.0,6.446446446446447,-0.5397426468331744,,
645,7.0,6.456456456456457,-0.597015859590843,,
646,7.0,6.466466466466467,-0.6386750932454175,,
647,7.0,6.476476476476477,-0.6711624003708042,,
648,7.0,6.486486486486487,-0.7140784191882033,,
649,7.0,6.496496496496497,-0.745312494147278,,
650,7.0,6.506506506506507,-0.7573967641144569,,
651,7.0,6.516516516516517,-0.7764724604519619,,
652,7.0,6.526526526526527,-0.7845234326000098,,
653,7.0,6.536536536536537,-0.7766582580092207,,
654,7.0,6.546546546546547,-0.7630333741579007,,
655,7.0,6.556556556556557,-0.7399736120139239,,
656,7.0,6.566566566566567,-0.7075603246614852,,
657,7.0,6.576576576576577,-0.6711112438495157,,
658,7.0,6.586586586586587,-0.6174548519805524,,
659,7.0,6.596596596596597,-0.5717392568910211,,
660,7.0,6.606606606606607,-0.5017071547365826,,
661,7.0,6.616616616616617,-0.4333439780868213,,
662,7.0,6.626626626626627,-0.3503764190072666,,
663,7.0,6.636636636636637,-0.2699275632042815,,
664,7.0,6.646646646646647,-0.1802768436514894,,
665,7.0,6.656656656656657,-0.0927224516531393,,
666,7.0,6.666666666666667,0.0010324027020144,,
667,7.0,6.676676676676677,0.0753060946791381,,
668,7.0,6.686686686686687,0.1707378540552989,,
669,7.0,6.696696696696697,0.2681700680809695,,
670,7.0,6.706706706706707,0.3510618636020576,,
671,7.0,6.716716716716717,0.4264769679600332,,
672,7.0,6.726726726726727,0.496179184113297,,
673,7.0,6.736736736736737,0.5697128407110383,,
674,7.0,6.746746746746747,0.6168314647030573,,
675,7.0,6.756756756756757,0.6658651569347016,,
676,7.0,6.766766766766767,0.7189594962745358,,
677,7.0,6.776776776776777,0.7445592558296655,,
678,7.0,6.786786786786787,0.7534272198436259,,
679,7.0,6.796796796796797,0.7801460452910474,,
680,7.0,6.806806806806807,0.7754810887124655,,
681,7.0,6.816816816816817,0.7774098453295507,,
682,7.0,6.826826826826827,0.7652312694599549,,
683,7.0,6.836836836836837,0.7428897809900039,,
684,7.0,6.846846846846847,0.7035296689922421,,
685,7.0,6.856856856856857,0.6738033715618511,,
686,7.0,6.866866866866867,0.6276633120983337,,
687,7.0,6.876876876876877,0.6021713070594776,,
688,7.0,6.886886886886887,0.5426742596412769,,
689,7.0,6.896896896896897,0.4962413820738829,,
690,7.0,6.906906906906907,0.4347222882443105,,
691,7.0,6.916916916916917,0.3954247109866234,,
692,7.0,6.926926926926927,0.3416245663443704,,
693,7.0,6.936936936936937,0.2965758043979407,,
694,7.0,6.946946946946947,0.2491013529210791,,
695,7.0,6.956956956956957,0.2065991318702893,,
696,7.0,6.966966966966967,0.1571729432599952,,
697,7.0,6.976976976976977,0.1348107213661088,,
698,7.0,6.986986986986987,0.0947749841137661,,
699,7.0,6.996996996996997,0.0692047061348069,,
700,7.0,7.007007007007007,0.0468445853907867,,
701,7.0,7.017017017017017,0.0389813932546854,,
702,7.0,7.027027027027027,0.0176846309809374,,
703,7.0,7.037037037037037,0.0153866530183771,,
704,7.0,7.047047047047047,0.0047748955140086,,
705,7.0,7.057057057057057,0.0005564939121733,,
706,7.0,7.067067067067067,-0.0020859119691292,,
707,7.0,7.077077077077077,0.0018158591648422,,
708,7.0,7.087087087087087,0.0024578172784624,,
709,7.0,7.097097097097097,-0.0029775978999725,,
710,7.0,7.107107107107107,-0.003111332470192,,
711,7.0,7.117117117117117,-0.0071311352509442,,
712,7.0,7.127127127127127,-0.0098096561613498,,
713,7.0,7.137137137137137,-0.0189096372083617,,
714,7.0,7.147147147147147,-0.0254225084829428,,
715,7.0,7.157157157157157,-0.042949977725888,,
716,7.0,7.167167167167167,-0.0745124953580062,,
717,7.0,7.177177177177177,-0.1000515464326653,,
718,7.0,7.187187187187187,-0.1254791942279731,,
719,7.0,7.197197197197197,-0.1554307287373842,,
720,7.0,7.207207207207207,-0.2036029212912339,,
721,7.0,7.217217217217217,-0.2450109229492359,,
722,7.0,7.227227227227227,-0.2735820818635474,,
723,7.0,7.237237237237237,-0.3219885613149131,,
724,7.0,7.247247247247247,-0.3747708023389993,,
725,7.0,7.257257257257257,-0.424469048712451,,
726,7.0,7.267267267267267,-0.4821832886626285,,
727,7.0,7.277277277277277,-0.5353148229642601,,
728,7.0,7.287287287287287,-0.5769752182750181,,
729,7.0,7.297297297297297,-0.6251618520612727,,
730,7.0,7.307307307307307,-0.6671991326071376,,
731,7.0,7.317317317317317,-0.7054753284320349,,
732,7.0,7.327327327327327,-0.7314845277533464,,
733,7.0,7.337337337337337,-0.7522028691461402,,
734,7.0,7.347347347347347,-0.7815691186898355,,
735,7.0,7.357357357357357,-0.769461610629512,,
736,7.0,7.367367367367367,-0.7788352646760798,,
737,7.0,7.377377377377377,-0.7674509355805791,,
738,7.0,7.387387387387387,-0.7524688369352528,,
739,7.0,7.397397397397397,-0.7223871994391814,,
740,7.0,7.407407407407407,-0.6784014629442113,,
741,7.0,7.4174174174174174,-0.6311487839497382,,
742,7.0,7.4274274274274275,-0.5862308472772554,,
743,7.0,7.437437437437437,-0.5169743858338036,,
744,7.0,7.447447447447447,-0.4467960578923216,,
745,7.0,7.4574574574574575,-0.3758887884424242,,
746,7.0,7.4674674674674675,-0.2865396284513748,,
747,7.0,7.477477477477477,-0.2010021413128408,,
748,7.0,7.487487487487487,-0.110941810722369,,
749,7.0,7.4974974974974975,-0.022121711303997,,
750,7.0,7.5075075075075075,0.0670876772821755,,
751,7.0,7.517517517517517,0.15095078272288,,
752,7.0,7.527527527527527,0.2383874111737908,,
753,7.0,7.5375375375375375,0.3234337603238736,,
754,7.0,7.5475475475475475,0.4111784728432693,,
755,7.0,7.557557557557557,0.4790064715019272,,
756,7.0,7.567567567567567,0.5559392972187376,,
757,7.0,7.5775775775775776,0.6029193818324522,,
758,7.0,7.587587587587588,0.663474434496581,,
759,7.0,7.597597597597598,0.7003136150882424,,
760,7.0,7.607607607607608,0.7303003338287133,,
761,7.0,7.617617617617618,0.7520373151341323,,
762,7.0,7.627627627627628,0.7749620067026483,,
763,7.0,7.637637637637638,0.7876426288246036,,
764,7.0,7.647647647647648,0.7882424933450651,,
765,7.0,7.657657657657658,0.7652217313863815,,
766,7.0,7.667667667667668,0.73784354375305,,
767,7.0,7.677677677677678,0.7096300524369352,,
768,7.0,7.687687687687688,0.6840789770801932,,
769,7.0,7.697697697697698,0.6479655016769401,,
770,7.0,7.707707707707708,0.6021675742419152,,
771,7.0,7.717717717717718,0.5558658204083646,,
772,7.0,7.727727727727728,0.5231953147385962,,
773,7.0,7.737737737737738,0.4638070839924933,,
774,7.0,7.747747747747748,0.4030307137702276,,
775,7.0,7.757757757757758,0.3576053890446052,,
776,7.0,7.767767767767768,0.3097214091339397,,
777,7.0,7.777777777777778,0.2713634504580453,,
778,7.0,7.787787787787788,0.207507208938461,,
779,7.0,7.797797797797798,0.1745479900762987,,
780,7.0,7.807807807807808,0.1394158566776032,,
781,7.0,7.817817817817818,0.1132767317674309,,
782,7.0,7.827827827827828,0.0779523449623219,,
783,7.0,7.837837837837838,0.055461807568542,,
784,7.0,7.847847847847848,0.039928464129117,,
785,7.0,7.857857857857858,0.0336800524072313,,
786,7.0,7.867867867867868,0.0056067793262918,,
787,7.0,7.877877877877878,0.0099083685113795,,
788,7.0,7.887887887887888,-0.0030468701287146,,
789,7.0,7.897897897897898,-0.0099448626188549,,
790,7.0,7.907907907907908,-0.004535360522346,,
791,7.0,7.917917917917918,-0.0048331682137099,,
792,7.0,7.927927927927928,-0.00048201267577,,
793,7.0,7.937937937937938,-0.0106464687298291,,
794,7.0,7.947947947947948,0.0029472416865447,,
795,7.0,7.957957957957958,-0.0130539620952393,,
796,7.0,7.967967967967968,-0.0198982950704663,,
797,7.0,7.977977977977978,-0.035001786735691,,
798,7.0,7.987987987987988,-0.0370918180340731,,
799,7.0,7.997997997997998,-0.0632795650419779,,
800,7.0,8.008008008008009,-0.0887741210335361,,
801,7.0,8.018018018018019,-0.1131777058877071,,
802,7.0,8.028028028028029,-0.1495040162631057,,
803,7.0,8.038038038038039,-0.1803239928989741,,
804,7.0,8.048048048048049,-0.2277686732651711,,
805,7.0,8.058058058058059,-0.2680060638705238,,
806,7.0,8.068068068068069,-0.3176616500897938,,
807,7.0,8.078078078078079,-0.3678712210346955,,
808,7.0,8.088088088088089,-0.4145349899963168,,
809,7.0,8.098098098098099,-0.4722211038389946,,
810,7.0,8.108108108108109,-0.518995992437578,,
811,7.0,8.118118118118119,-0.569171741230024,,
812,7.0,8.128128128128129,-0.613546826631694,,
813,7.0,8.138138138138139,-0.6544063093839099,,
814,7.0,8.148148148148149,-0.693159835277068,,
815,7.0,8.158158158158159,-0.7183951823707966,,
816,7.0,8.168168168168169,-0.7565934733295178,,
817,7.0,8.178178178178179,-0.7691252523122573,,
818,7.0,8.188188188188189,-0.7677504670933479,,
819,7.0,8.198198198198199,-0.7855274167956033,,
820,7.0,8.208208208208209,-0.7798818966030402,,
821,7.0,8.218218218218219,-0.7504408403968597,,
822,7.0,8.228228228228229,-0.733815841559826,,
823,7.0,8.238238238238239,-0.6869704975039981,,
824,7.0,8.248248248248249,-0.6440519956800919,,
825,7.0,8.258258258258259,-0.5979217499140368,,
826,7.0,8.268268268268269,-0.5323742222021659,,
827,7.0,8.278278278278279,-0.4678797449771457,,
828,7.0,8.288288288288289,-0.3885667385623108,,
829,7.0,8.298298298298299,-0.3081539409484195,,
830,7.0,8.308308308308309,-0.2339840964851949,,
831,7.0,8.318318318318319,-0.1284180174644865,,
832,7.0,8.328328328328329,-0.051869263260132,,
833,7.0,8.338338338338339,0.0483551248085801,,
834,7.0,8.348348348348349,0.1275152864854717,,
835,7.0,8.358358358358359,0.2261064094982571,,
836,7.0,8.368368368368369,0.3116450713902652,,
837,7.0,8.378378378378379,0.3953052514776854,,
838,7.0,8.388388388388389,0.4580340632199979,,
839,7.0,8.398398398398399,0.5334287595078194,,
840,7.0,8.408408408408409,0.5989516086547774,,
841,7.0,8.418418418418419,0.6490112306196509,,
842,7.0,8.428428428428429,0.695387551500466,,
843,7.0,8.438438438438439,0.7338276370400885,,
844,7.0,8.448448448448449,0.7527144580851067,,
845,7.0,8.458458458458459,0.7721274915085353,,
846,7.0,8.468468468468469,0.7806010932327623,,
847,7.0,8.478478478478479,0.7702858916354567,,
848,7.0,8.488488488488489,0.7728506216755132,,
849,7.0,8.498498498498499,0.7478488976148094,,
850,7.0,8.508508508508509,0.7285693792568216,,
851,7.0,8.518518518518519,0.6923274653073135,,
852,7.0,8.528528528528529,0.6610366949622124,,
853,7.0,8.538538538538539,0.6078431473782796,,
854,7.0,8.548548548548549,0.5728443004581835,,
855,7.0,8.558558558558559,0.512919454590079,,
856,7.0,8.568568568568569,0.4663154772291787,,
857,7.0,8.578578578578579,0.4119533524062295,,
858,7.0,8.588588588588589,0.3662281903803846,,
859,7.0,8.598598598598599,0.3193697810194219,,
860,7.0,8.608608608608609,0.2758545741095473,,
861,7.0,8.618618618618619,0.2344231423457138,,
862,7.0,8.62862862862863,0.1893595887462608,,
863,7.0,8.63863863863864,0.1466782242323444,,
864,7.0,8.64864864864865,0.1121918429568887,,
865,7.0,8.65865865865866,0.08641108552834,,
866,7.0,8.66866866866867,0.062308357326578,,
867,7.0,8.67867867867868,0.0473431133246695,,
868,7.0,8.68868868868869,0.0274548238384269,,
869,7.0,8.6986986986987,0.0154835769714469,,
870,7.0,8.70870870870871,0.0068302422334344,,
871,7.0,8.71871871871872,0.0038577341344856,,
872,7.0,8.72872872872873,0.0087456253862058,,
873,7.0,8.73873873873874,-0.0043075830920577,,
874,7.0,8.74874874874875,-0.0014510979937379,,
875,7.0,8.75875875875876,0.0033505352925784,,
876,7.0,8.76876876876877,0.0016246904416421,,
877,7.0,8.77877877877878,0.0047477966954833,,
878,7.0,8.78878878878879,-0.0064869753383475,,
879,7.0,8.7987987987988,-0.0222952410594774,,
880,7.0,8.80880880880881,-0.0248327543784641,,
881,7.0,8.81881881881882,-0.0447367277519834,,
882,7.0,8.82882882882883,-0.0644089362616236,,
883,7.0,8.83883883883884,-0.0887172503354835,,
884,7.0,8.84884884884885,-0.1120353751928804,,
885,7.0,8.85885885885886,-0.1392394275383954,,
886,7.0,8.86886886886887,-0.1674445190153376,,
887,7.0,8.87887887887888,-0.2118820202303944,,
888,7.0,8.88888888888889,-0.2596650638983936,,
889,7.0,8.8988988988989,-0.3101197168037895,,
890,7.0,8.90890890890891,-0.3588930110844808,,
891,7.0,8.91891891891892,-0.413468008878926,,
892,7.0,8.92892892892893,-0.4597520922336207,,
893,7.0,8.93893893893894,-0.5042946199110053,,
894,7.0,8.94894894894895,-0.5489299464421868,,
895,7.0,8.95895895895896,-0.602664966287387,,
896,7.0,8.96896896896897,-0.6570024124476447,,
897,7.0,8.97897897897898,-0.6880204916765137,,
898,7.0,8.98898898898899,-0.7202529732365173,,
899,7.0,8.998998998999,-0.7489292531542305,,
900,7.0,9.00900900900901,-0.7726750540943206,,
901,7.0,9.01901901901902,-0.7717319798299741,,
902,7.0,9.02902902902903,-0.7754813936890324,,
903,7.0,9.03903903903904,-0.7722050494538986,,
904,7.0,9.04904904904905,-0.7667687086164234,,
905,7.0,9.05905905905906,-0.7352874097786478,,
906,7.0,9.06906906906907,-0.7070298304370587,,
907,7.0,9.07907907907908,-0.6596458306354356,,
908,7.0,9.08908908908909,-0.6073402710682619,,
909,7.0,9.0990990990991,-0.5526535866672053,,
910,7.0,9.10910910910911,-0.4881454988255772,,
911,7.0,9.11911911911912,-0.4075782971872469,,
912,7.0,9.12912912912913,-0.3260661281817754,,
913,7.0,9.13913913913914,-0.2488678810471599,,
914,7.0,9.14914914914915,-0.154416409521702,,
915,7.0,9.15915915915916,-0.0656957005421854,,
916,7.0,9.16916916916917,0.029809231259869,,
917,7.0,9.17917917917918,0.1055617180692344,,
918,7.0,9.18918918918919,0.2086848566172893,,
919,7.0,9.1991991991992,0.2823932587217664,,
920,7.0,9.20920920920921,0.3780698388481873,,
921,7.0,9.21921921921922,0.442521766011457,,
922,7.0,9.22922922922923,0.5164638590373973,,
923,7.0,9.23923923923924,0.5673979125106334,,
924,7.0,9.24924924924925,0.6263194333219447,,
925,7.0,9.25925925925926,0.6720737073623612,,
926,7.0,9.26926926926927,0.7223667943093487,,
927,7.0,9.27927927927928,0.7506288189048466,,
928,7.0,9.28928928928929,0.7745568094933943,,
929,7.0,9.2992992992993,0.7804672538864368,,
930,7.0,9.30930930930931,0.782488029159656,,
931,7.0,9.31931931931932,0.7678577126896898,,
932,7.0,9.32932932932933,0.764924942604327,,
933,7.0,9.33933933933934,0.7294567224220078,,
934,7.0,9.34934934934935,0.7112298006656764,,
935,7.0,9.35935935935936,0.6573016843272745,,
936,7.0,9.36936936936937,0.6282033907070493,,
937,7.0,9.37937937937938,0.5786310024551579,,
938,7.0,9.38938938938939,0.5324055805152629,,
939,7.0,9.3993993993994,0.4816966445303009,,
940,7.0,9.40940940940941,0.4259881039386881,,
941,7.0,9.41941941941942,0.3684853436087004,,
942,7.0,9.42942942942943,0.3392036946585236,,
943,7.0,9.43943943943944,0.2749240811093871,,
944,7.0,9.44944944944945,0.2348786481198199,,
945,7.0,9.45945945945946,0.1974388441034134,,
946,7.0,9.46946946946947,0.1619439700901953,,
947,7.0,9.47947947947948,0.118063634137606,,
948,7.0,9.48948948948949,0.0911480119177764,,
949,7.0,9.4994994994995,0.0605931518677983,,
950,7.0,9.50950950950951,0.0436747361655316,,
951,7.0,9.51951951951952,0.0215305274572017,,
952,7.0,9.52952952952953,0.0183605770833142,,
953,7.0,9.53953953953954,0.0089406331181025,,
954,7.0,9.54954954954955,0.0126718483586059,,
955,7.0,9.55955955955956,0.0005326878277907,,
956,7.0,9.56956956956957,-0.0019443154678535,,
957,7.0,9.57957957957958,-0.0003782089551853,,
958,7.0,9.58958958958959,0.0009512942364755,,
959,7.0,9.5995995995996,0.0081692966816123,,
960,7.0,9.60960960960961,0.0004803358387787,,
961,7.0,9.61961961961962,-0.0059740178784737,,
962,7.0,9.62962962962963,-0.0171875577617779,,
963,7.0,9.63963963963964,-0.0168156736801614,,
964,7.0,9.64964964964965,-0.0392692374723529,,
965,7.0,9.65965965965966,-0.0441408996891782,,
966,7.0,9.66966966966967,-0.0724585400629251,,
967,7.0,9.67967967967968,-0.0972117464891111,,
968,7.0,9.68968968968969,-0.128323015636238,,
969,7.0,9.6996996996997,-0.1622723384461439,,
970,7.0,9.70970970970971,-0.1936182785539637,,
971,7.0,9.71971971971972,-0.249612340587125,,
972,7.0,9.72972972972973,-0.2962942317336661,,
973,7.0,9.73973973973974,-0.3421153993354035,,
974,7.0,9.74974974974975,-0.3985509566300802,,
975,7.0,9.75975975975976,-0.4428941479322235,,
976,7.0,9.76976976976977,-0.4919413187688964,,
977,7.0,9.77977977977978,-0.5425929688667771,,
978,7.0,9.78978978978979,-0.5945159228033229,,
979,7.0,9.7997997997998,-0.6429972424090142,,
980,7.0,9.80980980980981,-0.6701094834218747,,
981,7.0,9.81981981981982,-0.7081098343889342,,
982,7.0,9.82982982982983,-0.735583381350339,,
983,7.0,9.83983983983984,-0.7611255571465599,,
984,7.0,9.84984984984985,-0.7679385405595247,,
985,7.0,9.85985985985986,-0.7813365826234296,,
986,7.0,9.86986986986987,-0.7817304504792754,,
987,7.0,9.87987987987988,-0.764130792701028,,
988,7.0,9.88988988988989,-0.7461667610333359,,
989,7.0,9.8998998998999,-0.7094692845880853,,
990,7.0,9.90990990990991,-0.671392135361127,,
991,7.0,9.91991991991992,-0.6224086677628458,,
992,7.0,9.92992992992993,-0.5671462092360888,,
993,7.0,9.93993993993994,-0.5033849573569784,,
994,7.0,9.94994994994995,-0.4312037851871702,,
995,7.0,9.95995995995996,-0.3580532243801058,,
996,7.0,9.96996996996997,-0.26347412692798,,
997,7.0,9.97997997997998,-0.1798057882756283,,
998,7.0,9.98998998998999,-0.0963502981568343,,
999,7.0,10.0,0.0032991667728137,,
0,,,,71.0,37.98588026
1,,,,87.0,63.99203399
2,,,,65.0,87.45502852
3,,,,76.0,59.90844847
4,,,,93.0,60.70464529
5,,,,75.0,31.85818104
6,,,,98.0,27.55325512
7,,,,68.0,88.21327519
8,,,,86.0,46.05414594
9,,,,61.0,90.14936228
10,,,,79.0,40.73856427
11,,,,91.0,63.75629742
12,,,,86.0,76.43595811
13,,,,65.0,88.12241627
14,,,,90.0,59.40902284
15,,,,80.0,90.7207735
16,,,,86.0,20.09507654
17,,,,92.0,37.07977298
18,,,,66.0,97.32098137
19,,,,67.0,99.56933584
