,Subject_ID,Time,PPG,HR,HRV
0,5.0,0.0,0.0013610834231106,,
1,5.0,0.01001001001001,0.092212548828578,,
2,5.0,0.02002002002002,0.1827967220766322,,
3,5.0,0.03003003003003,0.2603897064706865,,
4,5.0,0.04004004004004,0.3434757113908926,,
5,5.0,0.05005005005005,0.4184539469260624,,
6,5.0,0.06006006006006,0.4985991282385905,,
7,5.0,0.07007007007007,0.5643842049691421,,
8,5.0,0.08008008008008,0.6221673789121861,,
9,5.0,0.09009009009009,0.6666499942581959,,
10,5.0,0.1001001001001,0.705057081506269,,
11,5.0,0.1101101101101101,0.7450929694961437,,
12,5.0,0.1201201201201201,0.7627493186944645,,
13,5.0,0.1301301301301301,0.7729442567746271,,
14,5.0,0.1401401401401401,0.7790427740333247,,
15,5.0,0.1501501501501501,0.7690960020929849,,
16,5.0,0.1601601601601601,0.7602460225909277,,
17,5.0,0.1701701701701701,0.7394328818959969,,
18,5.0,0.1801801801801801,0.7087030201246302,,
19,5.0,0.1901901901901901,0.6757558689482688,,
20,5.0,0.2002002002002001,0.6391368467943471,,
21,5.0,0.2102102102102102,0.5874837541749263,,
22,5.0,0.2202202202202202,0.5443200166195367,,
23,5.0,0.2302302302302302,0.4939991793119642,,
24,5.0,0.2402402402402402,0.4445343853760766,,
25,5.0,0.2502502502502503,0.3915893218188881,,
26,5.0,0.2602602602602603,0.3389341045243569,,
27,5.0,0.2702702702702703,0.2924989991081683,,
28,5.0,0.2802802802802803,0.2604500784763526,,
29,5.0,0.2902902902902903,0.2016773331048834,,
30,5.0,0.3003003003003003,0.1592882184043676,,
31,5.0,0.3103103103103103,0.1421480088114804,,
32,5.0,0.3203203203203203,0.1007249028795264,,
33,5.0,0.3303303303303303,0.0734334110770209,,
34,5.0,0.3403403403403403,0.0506203418476342,,
35,5.0,0.3503503503503503,0.0295648647932411,,
36,5.0,0.3603603603603603,0.0184256387393741,,
37,5.0,0.3703703703703703,0.0105534163021314,,
38,5.0,0.3803803803803803,0.0041519837912616,,
39,5.0,0.3903903903903903,0.006325045691512,,
40,5.0,0.4004004004004003,-0.0005054676048221,,
41,5.0,0.4104104104104104,-0.0039371244338907,,
42,5.0,0.4204204204204204,-0.0027620287748385,,
43,5.0,0.4304304304304304,0.0023785099911032,,
44,5.0,0.4404404404404404,-0.0099227363353534,,
45,5.0,0.4504504504504504,0.004334373987904,,
46,5.0,0.4604604604604604,-0.0083301464750754,,
47,5.0,0.4704704704704704,-0.0237864902737146,,
48,5.0,0.4804804804804805,-0.0243122052426145,,
49,5.0,0.4904904904904905,-0.0457863013193302,,
50,5.0,0.5005005005005005,-0.0723192425668329,,
51,5.0,0.5105105105105106,-0.0964064856767368,,
52,5.0,0.5205205205205206,-0.1198468124363921,,
53,5.0,0.5305305305305306,-0.1532866557706613,,
54,5.0,0.5405405405405406,-0.1916774955018715,,
55,5.0,0.5505505505505506,-0.2347934150631903,,
56,5.0,0.5605605605605606,-0.2813405238129903,,
57,5.0,0.5705705705705706,-0.3257024623019454,,
58,5.0,0.5805805805805806,-0.3807228052143475,,
59,5.0,0.5905905905905906,-0.4376591212660897,,
60,5.0,0.6006006006006006,-0.4849894295763935,,
61,5.0,0.6106106106106106,-0.5287297617459398,,
62,5.0,0.6206206206206206,-0.5852705346218963,,
63,5.0,0.6306306306306306,-0.620751596418488,,
64,5.0,0.6406406406406406,-0.6709990723502589,,
65,5.0,0.6506506506506506,-0.7074419965102229,,
66,5.0,0.6606606606606606,-0.7289436622359364,,
67,5.0,0.6706706706706707,-0.7543617976948686,,
68,5.0,0.6806806806806807,-0.7724982861062116,,
69,5.0,0.6906906906906907,-0.7796124869988962,,
70,5.0,0.7007007007007007,-0.7864851467015467,,
71,5.0,0.7107107107107107,-0.7697296878429409,,
72,5.0,0.7207207207207207,-0.7426708232228879,,
73,5.0,0.7307307307307307,-0.7195085512891732,,
74,5.0,0.7407407407407407,-0.6788736158415991,,
75,5.0,0.7507507507507507,-0.6294597844109011,,
76,5.0,0.7607607607607607,-0.5807145354318379,,
77,5.0,0.7707707707707707,-0.5069875735532543,,
78,5.0,0.7807807807807807,-0.4543905895547353,,
79,5.0,0.7907907907907907,-0.3635869576201684,,
80,5.0,0.8008008008008007,-0.2807530750460368,,
81,5.0,0.8108108108108109,-0.205277749478736,,
82,5.0,0.8208208208208209,-0.1098303283049481,,
83,5.0,0.8308308308308309,-0.0162186515692271,,
84,5.0,0.8408408408408409,0.0671159137701386,,
85,5.0,0.8508508508508509,0.1646962182236403,,
86,5.0,0.8608608608608609,0.2456620039310517,,
87,5.0,0.8708708708708709,0.3357438805139632,,
88,5.0,0.8808808808808809,0.4022374860160302,,
89,5.0,0.8908908908908909,0.4852896488145532,,
90,5.0,0.9009009009009008,0.5513320124512527,,
91,5.0,0.9109109109109108,0.5972333303205293,,
92,5.0,0.9209209209209208,0.6612125030631949,,
93,5.0,0.9309309309309308,0.6988001988625954,,
94,5.0,0.9409409409409408,0.735951841262208,,
95,5.0,0.950950950950951,0.7498938729780018,,
96,5.0,0.960960960960961,0.7829368209890994,,
97,5.0,0.970970970970971,0.7718887050037089,,
98,5.0,0.980980980980981,0.7668104484762669,,
99,5.0,0.990990990990991,0.7671886854497237,,
100,5.0,1.001001001001001,0.7462717679494052,,
101,5.0,1.011011011011011,0.720263533224453,,
102,5.0,1.021021021021021,0.6844371408902787,,
103,5.0,1.031031031031031,0.6393049108499383,,
104,5.0,1.0410410410410411,0.6040105183009243,,
105,5.0,1.0510510510510511,0.5576324495417907,,
106,5.0,1.0610610610610611,0.510643991961633,,
107,5.0,1.0710710710710711,0.4586854638957883,,
108,5.0,1.0810810810810811,0.3979506258463332,,
109,5.0,1.0910910910910911,0.3534559025105575,,
110,5.0,1.1011011011011012,0.3085732563514164,,
111,5.0,1.1111111111111112,0.258265789568805,,
112,5.0,1.1211211211211212,0.2103872010598323,,
113,5.0,1.1311311311311312,0.1683886530694447,,
114,5.0,1.1411411411411412,0.1357849743604915,,
115,5.0,1.1511511511511512,0.1069079239749724,,
116,5.0,1.1611611611611612,0.0753835251590055,,
117,5.0,1.1711711711711712,0.0579764332944101,,
118,5.0,1.1811811811811812,0.0520007963762609,,
119,5.0,1.1911911911911912,0.0318303416031973,,
120,5.0,1.2012012012012012,0.0183138964374775,,
121,5.0,1.2112112112112112,0.001948969476344,,
122,5.0,1.2212212212212212,0.0014190293282209,,
123,5.0,1.2312312312312312,0.0078005010347718,,
124,5.0,1.2412412412412412,-0.0019454604825439,,
125,5.0,1.2512512512512513,-0.0134256503105111,,
126,5.0,1.2612612612612613,-0.003581353383776,,
127,5.0,1.2712712712712713,0.0010466856565762,,
128,5.0,1.2812812812812813,-0.0116863343516703,,
129,5.0,1.2912912912912913,-0.0100452925269298,,
130,5.0,1.3013013013013013,-0.022057972911,,
131,5.0,1.3113113113113113,-0.0361319565032601,,
132,5.0,1.3213213213213213,-0.0364632323186407,,
133,5.0,1.3313313313313313,-0.0665175755283699,,
134,5.0,1.3413413413413413,-0.0780691778042292,,
135,5.0,1.351351351351351,-0.1187126469478019,,
136,5.0,1.361361361361361,-0.1539414693870993,,
137,5.0,1.371371371371371,-0.1808235475173284,,
138,5.0,1.3813813813813811,-0.2369762569257919,,
139,5.0,1.3913913913913911,-0.2758389021796588,,
140,5.0,1.4014014014014011,-0.324164258904592,,
141,5.0,1.4114114114114114,-0.3656284301403558,,
142,5.0,1.4214214214214214,-0.4153070360181736,,
143,5.0,1.4314314314314314,-0.465233267181979,,
144,5.0,1.4414414414414414,-0.5259955146762142,,
145,5.0,1.4514514514514514,-0.5647565948567091,,
146,5.0,1.4614614614614614,-0.6179999023613084,,
147,5.0,1.4714714714714714,-0.6607937424423599,,
148,5.0,1.4814814814814814,-0.6911382273410059,,
149,5.0,1.4914914914914914,-0.724298439412707,,
150,5.0,1.5015015015015014,-0.7562565172361772,,
151,5.0,1.5115115115115114,-0.7715141209903388,,
152,5.0,1.5215215215215214,-0.7705012723503487,,
153,5.0,1.5315315315315314,-0.774095775095873,,
154,5.0,1.5415415415415414,-0.7677823588357573,,
155,5.0,1.5515515515515514,-0.7543947325572442,,
156,5.0,1.5615615615615617,-0.72972475396772,,
157,5.0,1.5715715715715717,-0.6957421178106321,,
158,5.0,1.5815815815815817,-0.6441400492646531,,
159,5.0,1.5915915915915917,-0.5922531857594241,,
160,5.0,1.6016016016016017,-0.530944622577643,,
161,5.0,1.6116116116116117,-0.468810853380359,,
162,5.0,1.6216216216216215,-0.3904357567183528,,
163,5.0,1.6316316316316315,-0.3032661335985873,,
164,5.0,1.6416416416416415,-0.2185956627426589,,
165,5.0,1.6516516516516515,-0.1339207266655304,,
166,5.0,1.6616616616616615,-0.0459039556056804,,
167,5.0,1.6716716716716715,0.0450638265716369,,
168,5.0,1.6816816816816818,0.1348403675471507,,
169,5.0,1.6916916916916918,0.2316874612407856,,
170,5.0,1.7017017017017018,0.3028615184109044,,
171,5.0,1.7117117117117118,0.3892907445580704,,
172,5.0,1.7217217217217218,0.464879381990826,,
173,5.0,1.7317317317317318,0.5285868834203813,,
174,5.0,1.7417417417417418,0.5898125409132016,,
175,5.0,1.7517517517517518,0.649622456057338,,
176,5.0,1.7617617617617618,0.684732923702498,,
177,5.0,1.7717717717717718,0.7328912239056753,,
178,5.0,1.7817817817817818,0.7681584277526424,,
179,5.0,1.7917917917917918,0.7676888853181114,,
180,5.0,1.8018018018018016,0.7772854442503472,,
181,5.0,1.811811811811812,0.7836537204114602,,
182,5.0,1.8218218218218216,0.7692229909387491,,
183,5.0,1.831831831831832,0.7528491044589163,,
184,5.0,1.8418418418418416,0.7273320532151168,,
185,5.0,1.851851851851852,0.686229979693564,,
186,5.0,1.8618618618618616,0.664966688459774,,
187,5.0,1.871871871871872,0.6168850629153931,,
188,5.0,1.8818818818818817,0.5670425721275837,,
189,5.0,1.891891891891892,0.5260203661301408,,
190,5.0,1.901901901901902,0.4726262806193567,,
191,5.0,1.911911911911912,0.4167626904408854,,
192,5.0,1.921921921921922,0.3727197304338386,,
193,5.0,1.931931931931932,0.326252264750806,,
194,5.0,1.941941941941942,0.2703145206094143,,
195,5.0,1.951951951951952,0.2249478983654223,,
196,5.0,1.961961961961962,0.1868030691058358,,
197,5.0,1.971971971971972,0.1521185657761439,,
198,5.0,1.981981981981982,0.1168666709292016,,
199,5.0,1.991991991991992,0.0820376730660768,,
200,5.0,2.002002002002002,0.0629515274018575,,
201,5.0,2.012012012012012,0.0462676767683559,,
202,5.0,2.022022022022022,0.0296220310581284,,
203,5.0,2.032032032032032,0.0209620835041735,,
204,5.0,2.042042042042042,0.0035094622746655,,
205,5.0,2.052052052052052,-0.0041145251961938,,
206,5.0,2.062062062062062,0.0031921596809432,,
207,5.0,2.072072072072072,-0.0029592654020651,,
208,5.0,2.0820820820820822,0.0038547103707002,,
209,5.0,2.092092092092092,-0.0005162973390961,,
210,5.0,2.1021021021021022,0.0057849029616967,,
211,5.0,2.112112112112112,0.0027418031397934,,
212,5.0,2.1221221221221223,-0.0082895373640739,,
213,5.0,2.1321321321321323,-0.0176692181513111,,
214,5.0,2.1421421421421423,-0.0254062183448964,,
215,5.0,2.1521521521521523,-0.0467383953306314,,
216,5.0,2.1621621621621623,-0.051562122360808,,
217,5.0,2.1721721721721723,-0.0813209221955812,,
218,5.0,2.1821821821821823,-0.1154552126559631,,
219,5.0,2.1921921921921923,-0.1460000442503754,,
220,5.0,2.2022022022022023,-0.1710104939725358,,
221,5.0,2.2122122122122123,-0.2258071222278252,,
222,5.0,2.2222222222222223,-0.2661069108828498,,
223,5.0,2.2322322322322323,-0.3074242451974344,,
224,5.0,2.2422422422422423,-0.3460491542341862,,
225,5.0,2.2522522522522523,-0.4030418887721028,,
226,5.0,2.2622622622622623,-0.460991269444046,,
227,5.0,2.2722722722722724,-0.509424719999921,,
228,5.0,2.2822822822822824,-0.559520231806846,,
229,5.0,2.2922922922922924,-0.591401675672233,,
230,5.0,2.3023023023023024,-0.6579179734239525,,
231,5.0,2.3123123123123124,-0.6818799236864945,,
232,5.0,2.3223223223223224,-0.7175726049573498,,
233,5.0,2.3323323323323324,-0.7472722020267688,,
234,5.0,2.3423423423423424,-0.7565312074210577,,
235,5.0,2.3523523523523524,-0.7684963424022202,,
236,5.0,2.3623623623623624,-0.7847861683665626,,
237,5.0,2.3723723723723724,-0.7747920344276041,,
238,5.0,2.3823823823823824,-0.7598756158184466,,
239,5.0,2.3923923923923924,-0.7360833184934319,,
240,5.0,2.4024024024024024,-0.7096695312768109,,
241,5.0,2.4124124124124124,-0.657248824898111,,
242,5.0,2.4224224224224224,-0.6012277573157624,,
243,5.0,2.4324324324324325,-0.5467089373811146,,
244,5.0,2.4424424424424425,-0.4740565024023488,,
245,5.0,2.4524524524524525,-0.4037079638597599,,
246,5.0,2.4624624624624625,-0.3357072234171898,,
247,5.0,2.4724724724724725,-0.2394985099556988,,
248,5.0,2.4824824824824825,-0.1468900723511608,,
249,5.0,2.4924924924924925,-0.0745085087297757,,
250,5.0,2.5025025025025025,0.027384556718474,,
251,5.0,2.5125125125125125,0.1087699442195186,,
252,5.0,2.5225225225225225,0.1983483314455649,,
253,5.0,2.5325325325325325,0.2851147881019148,,
254,5.0,2.5425425425425425,0.3657032711545319,,
255,5.0,2.5525525525525525,0.4377175072280982,,
256,5.0,2.5625625625625625,0.5069446293800913,,
257,5.0,2.5725725725725725,0.5785632148029013,,
258,5.0,2.5825825825825826,0.6296052882629211,,
259,5.0,2.592592592592593,0.6864386812249882,,
260,5.0,2.6026026026026026,0.7188049969595641,,
261,5.0,2.612612612612613,0.7499658576480344,,
262,5.0,2.6226226226226226,0.7671779865307556,,
263,5.0,2.6326326326326326,0.7768231271871583,,
264,5.0,2.6426426426426426,0.7787625494782981,,
265,5.0,2.6526526526526526,0.7683979935045934,,
266,5.0,2.6626626626626626,0.7584157219377882,,
267,5.0,2.6726726726726726,0.7377021795839538,,
268,5.0,2.6826826826826826,0.7029033867642652,,
269,5.0,2.6926926926926926,0.6667753264119834,,
270,5.0,2.702702702702702,0.6243228398403337,,
271,5.0,2.7127127127127126,0.5738615114782006,,
272,5.0,2.722722722722722,0.5264147525292673,,
273,5.0,2.7327327327327327,0.4797420496800922,,
274,5.0,2.7427427427427427,0.4311330558520589,,
275,5.0,2.7527527527527527,0.376730269683654,,
276,5.0,2.7627627627627627,0.3325004332364339,,
277,5.0,2.7727727727727727,0.2852837826665421,,
278,5.0,2.7827827827827827,0.2295043773768385,,
279,5.0,2.7927927927927927,0.1973304245411336,,
280,5.0,2.8028028028028027,0.162943384135578,,
281,5.0,2.8128128128128127,0.1148755306870526,,
282,5.0,2.8228228228228227,0.096348546271892,,
283,5.0,2.8328328328328327,0.0753613247927678,,
284,5.0,2.8428428428428427,0.0445772520267685,,
285,5.0,2.8528528528528527,0.0242274634854025,,
286,5.0,2.8628628628628627,0.0288254728781464,,
287,5.0,2.8728728728728727,0.003865845376432,,
288,5.0,2.8828828828828827,0.0042552744077597,,
289,5.0,2.8928928928928928,0.0113878164943817,,
290,5.0,2.9029029029029028,0.0044171928279433,,
291,5.0,2.9129129129129128,-0.0005197021385777,,
292,5.0,2.9229229229229228,-0.005537056900842,,
293,5.0,2.932932932932933,-0.0002831068717037,,
294,5.0,2.942942942942943,-0.002483513129334,,
295,5.0,2.952952952952953,-0.0038124259110098,,
296,5.0,2.962962962962963,-0.0165755264900646,,
297,5.0,2.972972972972973,-0.0300745978591109,,
298,5.0,2.982982982982983,-0.0286646428895136,,
299,5.0,2.992992992992993,-0.0547360423493668,,
300,5.0,3.003003003003003,-0.0784404320762301,,
301,5.0,3.013013013013013,-0.1068455241288733,,
302,5.0,3.023023023023023,-0.1343573609239032,,
303,5.0,3.033033033033033,-0.1715571317321553,,
304,5.0,3.043043043043043,-0.2070313004823697,,
305,5.0,3.053053053053053,-0.252096200704213,,
306,5.0,3.063063063063063,-0.2887471452488443,,
307,5.0,3.073073073073073,-0.3388202992560753,,
308,5.0,3.083083083083083,-0.391021363949886,,
309,5.0,3.093093093093093,-0.4486841412433707,,
310,5.0,3.103103103103103,-0.4842881069239285,,
311,5.0,3.113113113113113,-0.5464590135940691,,
312,5.0,3.123123123123123,-0.5884652337536871,,
313,5.0,3.133133133133133,-0.6339076091499928,,
314,5.0,3.143143143143143,-0.6846485786727249,,
315,5.0,3.153153153153153,-0.7114644021505463,,
316,5.0,3.163163163163163,-0.7359407022471195,,
317,5.0,3.173173173173173,-0.7550501102640477,,
318,5.0,3.183183183183183,-0.7669595109715445,,
319,5.0,3.193193193193193,-0.7791634399543041,,
320,5.0,3.203203203203203,-0.7805982600699177,,
321,5.0,3.2132132132132134,-0.7656391425030008,,
322,5.0,3.2232232232232234,-0.7417024810170747,,
323,5.0,3.2332332332332334,-0.7101810291355876,,
324,5.0,3.2432432432432434,-0.6745923974801032,,
325,5.0,3.253253253253253,-0.6181748443089966,,
326,5.0,3.2632632632632634,-0.5628019179965728,,
327,5.0,3.273273273273273,-0.5023425707426151,,
328,5.0,3.2832832832832834,-0.4297029605849343,,
329,5.0,3.293293293293293,-0.3532495434204543,,
330,5.0,3.3033033033033035,-0.2607801272124412,,
331,5.0,3.313313313313313,-0.1795317236707554,,
332,5.0,3.3233233233233235,-0.0963838451570526,,
333,5.0,3.333333333333333,-0.0060850211727793,,
334,5.0,3.3433433433433435,0.0945395627359037,,
335,5.0,3.353353353353353,0.1802261935704682,,
336,5.0,3.3633633633633635,0.2608937181350493,,
337,5.0,3.373373373373373,0.354884301761077,,
338,5.0,3.3833833833833835,0.4275028728929796,,
339,5.0,3.393393393393393,0.4994894038399938,,
340,5.0,3.4034034034034035,0.5612377977208535,,
341,5.0,3.413413413413413,0.6266910878263241,,
342,5.0,3.4234234234234235,0.6669736261300755,,
343,5.0,3.433433433433433,0.7123064391425683,,
344,5.0,3.443443443443444,0.7475870851494482,,
345,5.0,3.4534534534534536,0.7669996167418998,,
346,5.0,3.463463463463464,0.7715456683780042,,
347,5.0,3.4734734734734736,0.7829674282131938,,
348,5.0,3.483483483483484,0.7793479460729018,,
349,5.0,3.4934934934934936,0.7649170157903528,,
350,5.0,3.503503503503504,0.7422474568003348,,
351,5.0,3.5135135135135136,0.7021801129536326,,
352,5.0,3.523523523523524,0.667122453935194,,
353,5.0,3.5335335335335336,0.6294682593908736,,
354,5.0,3.543543543543544,0.5906375452764412,,
355,5.0,3.5535535535535536,0.5393239107221897,,
356,5.0,3.563563563563564,0.4916388531414296,,
357,5.0,3.5735735735735736,0.4321717421963206,,
358,5.0,3.583583583583584,0.3923257838754659,,
359,5.0,3.5935935935935936,0.3413217211888018,,
360,5.0,3.603603603603604,0.2851131202971356,,
361,5.0,3.6136136136136137,0.2502021755733281,,
362,5.0,3.623623623623624,0.1953557765073702,,
363,5.0,3.6336336336336337,0.167666535360825,,
364,5.0,3.643643643643644,0.1370424383122435,,
365,5.0,3.6536536536536537,0.1063851530090495,,
366,5.0,3.663663663663664,0.0768507149283608,,
367,5.0,3.6736736736736737,0.0559978961245747,,
368,5.0,3.683683683683684,0.0359194381352415,,
369,5.0,3.6936936936936937,0.0169810740104765,,
370,5.0,3.703703703703704,0.0174877840817507,,
371,5.0,3.7137137137137137,0.0101212970612863,,
372,5.0,3.723723723723724,0.0034095487871527,,
373,5.0,3.7337337337337337,-0.003565748596071,,
374,5.0,3.743743743743744,-0.0026764183422774,,
375,5.0,3.7537537537537538,-0.005565578879988,,
376,5.0,3.763763763763764,0.0032252143980275,,
377,5.0,3.7737737737737738,-0.0034372835872639,,
378,5.0,3.783783783783784,0.0010416549670497,,
379,5.0,3.793793793793794,-0.0042853705747077,,
380,5.0,3.803803803803804,-0.0166896890559731,,
381,5.0,3.813813813813814,-0.0312115540216221,,
382,5.0,3.823823823823824,-0.0464560183998331,,
383,5.0,3.833833833833834,-0.0661800565203686,,
384,5.0,3.843843843843844,-0.0837647253167713,,
385,5.0,3.853853853853854,-0.1267828076115321,,
386,5.0,3.863863863863864,-0.1627560150814701,,
387,5.0,3.873873873873874,-0.2037360541151825,,
388,5.0,3.883883883883884,-0.236597139504805,,
389,5.0,3.893893893893894,-0.2873510578379027,,
390,5.0,3.903903903903904,-0.3326780744009476,,
391,5.0,3.913913913913914,-0.3861627089136288,,
392,5.0,3.923923923923924,-0.4337015374483316,,
393,5.0,3.933933933933934,-0.4839508890403699,,
394,5.0,3.943943943943944,-0.5362248097623076,,
395,5.0,3.953953953953954,-0.5714372241703991,,
396,5.0,3.963963963963964,-0.6280111935002182,,
397,5.0,3.973973973973974,-0.6658597329116543,,
398,5.0,3.983983983983984,-0.6944070320693917,,
399,5.0,3.993993993993994,-0.7277865527893385,,
400,5.0,4.004004004004004,-0.746731672759667,,
401,5.0,4.014014014014014,-0.7757862180332771,,
402,5.0,4.024024024024024,-0.7686660212088667,,
403,5.0,4.034034034034034,-0.7872100649967818,,
404,5.0,4.044044044044044,-0.7704997752140439,,
405,5.0,4.054054054054054,-0.7474682668434259,,
406,5.0,4.064064064064064,-0.7249707842048541,,
407,5.0,4.074074074074074,-0.6791889951669151,,
408,5.0,4.084084084084084,-0.640033357993756,,
409,5.0,4.094094094094094,-0.5744726123479352,,
410,5.0,4.104104104104104,-0.5085764607519269,,
411,5.0,4.114114114114114,-0.4442909778500243,,
412,5.0,4.124124124124124,-0.3740310922567657,,
413,5.0,4.134134134134134,-0.2927047792029397,,
414,5.0,4.144144144144144,-0.2019989632509082,,
415,5.0,4.1541541541541545,-0.1083513479943885,,
416,5.0,4.1641641641641645,-0.0194731246034358,,
417,5.0,4.174174174174175,0.0699104193862572,,
418,5.0,4.1841841841841845,0.1562217723986692,,
419,5.0,4.1941941941941945,0.2372594937458262,,
420,5.0,4.2042042042042045,0.3426971910193683,,
421,5.0,4.214214214214215,0.4018012582817846,,
422,5.0,4.2242242242242245,0.4741302350689306,,
423,5.0,4.2342342342342345,0.5518307320368577,,
424,5.0,4.2442442442442445,0.6055400807091474,,
425,5.0,4.254254254254255,0.6642070505945081,,
426,5.0,4.2642642642642645,0.6973662953080295,,
427,5.0,4.2742742742742745,0.7352732408789754,,
428,5.0,4.2842842842842845,0.7589240912690178,,
429,5.0,4.294294294294295,0.7670422025323265,,
430,5.0,4.3043043043043046,0.7769748914625041,,
431,5.0,4.314314314314315,0.7770786120868979,,
432,5.0,4.324324324324325,0.7722749619615896,,
433,5.0,4.334334334334335,0.7419045256242566,,
434,5.0,4.344344344344345,0.7196894576284946,,
435,5.0,4.354354354354355,0.6804751867697787,,
436,5.0,4.364364364364365,0.6479939814392964,,
437,5.0,4.374374374374375,0.6071957153289951,,
438,5.0,4.384384384384385,0.550963044747841,,
439,5.0,4.394394394394395,0.4991393451143985,,
440,5.0,4.404404404404405,0.4592255061350478,,
441,5.0,4.414414414414415,0.4007431977406664,,
442,5.0,4.424424424424425,0.3551210991194762,,
443,5.0,4.434434434434435,0.3055635242698625,,
444,5.0,4.444444444444445,0.2551948364084113,,
445,5.0,4.454454454454455,0.2132581981363621,,
446,5.0,4.464464464464465,0.1738640829415461,,
447,5.0,4.474474474474475,0.1427050202025175,,
448,5.0,4.484484484484485,0.105613208310172,,
449,5.0,4.494494494494495,0.0808154042525446,,
450,5.0,4.504504504504505,0.0562954940560959,,
451,5.0,4.514514514514515,0.0343720144697337,,
452,5.0,4.524524524524525,0.0250001731717223,,
453,5.0,4.534534534534535,0.0211983097987658,,
454,5.0,4.544544544544545,0.0020658844876761,,
455,5.0,4.554554554554555,-0.0014415060756881,,
456,5.0,4.564564564564565,0.0062809578188613,,
457,5.0,4.574574574574575,0.0052941149529804,,
458,5.0,4.584584584584585,0.0018756128615299,,
459,5.0,4.594594594594595,-0.0096438542894102,,
460,5.0,4.604604604604605,0.0002362706855293,,
461,5.0,4.614614614614615,0.002031327620643,,
462,5.0,4.624624624624625,-0.0088990212897131,,
463,5.0,4.634634634634635,-0.0173823345108973,,
464,5.0,4.644644644644645,-0.0277580513254776,,
465,5.0,4.654654654654655,-0.0460605386558352,,
466,5.0,4.664664664664665,-0.0635895482162854,,
467,5.0,4.674674674674675,-0.0757371520423659,,
468,5.0,4.684684684684685,-0.1116884541168011,,
469,5.0,4.694694694694695,-0.1420370253859582,,
470,5.0,4.704704704704705,-0.1911015882994806,,
471,5.0,4.714714714714715,-0.2311126699417919,,
472,5.0,4.724724724724725,-0.2758027152001382,,
473,5.0,4.734734734734735,-0.3195477966562173,,
474,5.0,4.744744744744745,-0.3666223528680947,,
475,5.0,4.754754754754755,-0.4144563862871745,,
476,5.0,4.764764764764765,-0.4698070332151137,,
477,5.0,4.774774774774775,-0.5126371305416163,,
478,5.0,4.784784784784785,-0.562829892028802,,
479,5.0,4.794794794794795,-0.6169650658189613,,
480,5.0,4.804804804804805,-0.6573783098668626,,
481,5.0,4.814814814814815,-0.6930791461521475,,
482,5.0,4.824824824824825,-0.729235913711774,,
483,5.0,4.834834834834835,-0.7440482119758406,,
484,5.0,4.844844844844845,-0.7709873681082168,,
485,5.0,4.854854854854855,-0.7781073588967066,,
486,5.0,4.864864864864865,-0.7699805786120412,,
487,5.0,4.874874874874875,-0.7796306018396792,,
488,5.0,4.884884884884885,-0.7583130772611247,,
489,5.0,4.894894894894895,-0.7341581998453991,,
490,5.0,4.904904904904905,-0.6960535696624321,,
491,5.0,4.914914914914915,-0.63482407803217,,
492,5.0,4.924924924924925,-0.5927594182898314,,
493,5.0,4.934934934934935,-0.5340008888150144,,
494,5.0,4.944944944944945,-0.4672858908668607,,
495,5.0,4.954954954954955,-0.3972940168387971,,
496,5.0,4.964964964964965,-0.3098459286537249,,
497,5.0,4.974974974974975,-0.2236330407205602,,
498,5.0,4.984984984984985,-0.1407411827150175,,
499,5.0,4.994994994994995,-0.0485271213772621,,
500,5.0,5.005005005005005,0.0491396638823886,,
501,5.0,5.015015015015015,0.1398749788137575,,
502,5.0,5.025025025025025,0.2250992456721921,,
503,5.0,5.035035035035035,0.3124401778871878,,
504,5.0,5.045045045045045,0.3943471857306649,,
505,5.0,5.055055055055055,0.4607458156783331,,
506,5.0,5.065065065065065,0.5375201665295734,,
507,5.0,5.075075075075075,0.6042805454924479,,
508,5.0,5.085085085085085,0.6481005487331323,,
509,5.0,5.095095095095095,0.6914492908417913,,
510,5.0,5.105105105105105,0.7187589707309934,,
511,5.0,5.115115115115115,0.7532394598502409,,
512,5.0,5.125125125125125,0.7670302456428268,,
513,5.0,5.135135135135135,0.7773911528628358,,
514,5.0,5.145145145145145,0.7791072573030674,,
515,5.0,5.155155155155155,0.7647674587826678,,
516,5.0,5.165165165165165,0.7589281615185509,,
517,5.0,5.175175175175175,0.7241874105444365,,
518,5.0,5.185185185185185,0.6908160465784975,,
519,5.0,5.195195195195195,0.6541745443130595,,
520,5.0,5.205205205205205,0.6265076357551956,,
521,5.0,5.215215215215215,0.5636464616373578,,
522,5.0,5.225225225225225,0.5246536569229769,,
523,5.0,5.235235235235235,0.46935921492366,,
524,5.0,5.245245245245245,0.4116054455051054,,
525,5.0,5.255255255255255,0.3606655911796646,,
526,5.0,5.265265265265265,0.313295854634582,,
527,5.0,5.275275275275275,0.2749057874295642,,
528,5.0,5.285285285285285,0.2288444622309848,,
529,5.0,5.295295295295295,0.1863619486761669,,
530,5.0,5.305305305305305,0.14508830562922,,
531,5.0,5.315315315315315,0.1215867370484411,,
532,5.0,5.325325325325325,0.0801449826053154,,
533,5.0,5.335335335335335,0.0575174375844347,,
534,5.0,5.345345345345345,0.0356673789868038,,
535,5.0,5.355355355355355,0.0281437552782005,,
536,5.0,5.365365365365365,0.0116422054902012,,
537,5.0,5.375375375375375,0.003451966235947,,
538,5.0,5.385385385385385,0.0051815326843397,,
539,5.0,5.395395395395395,0.0056571249416176,,
540,5.0,5.405405405405405,-0.0039834213597405,,
541,5.0,5.415415415415415,0.008413626913961,,
542,5.0,5.425425425425425,0.0048352171509839,,
543,5.0,5.435435435435435,-0.0024030976110267,,
544,5.0,5.445445445445445,-0.0025497047564419,,
545,5.0,5.455455455455455,-0.0038440323761817,,
546,5.0,5.465465465465465,-0.0138414079933153,,
547,5.0,5.475475475475475,-0.0252323622464231,,
548,5.0,5.485485485485485,-0.0439911420572344,,
549,5.0,5.495495495495495,-0.0518779084135846,,
550,5.0,5.505505505505505,-0.0853499237650685,,
551,5.0,5.515515515515515,-0.1033506495472322,,
552,5.0,5.525525525525525,-0.1428775578533426,,
553,5.0,5.535535535535535,-0.1721459785331469,,
554,5.0,5.545545545545545,-0.2086951777828804,,
555,5.0,5.555555555555555,-0.2561860787457338,,
556,5.0,5.565565565565565,-0.3055869821351366,,
557,5.0,5.575575575575575,-0.3455921818484538,,
558,5.0,5.585585585585585,-0.407849277995666,,
559,5.0,5.595595595595595,-0.4511330101015239,,
560,5.0,5.605605605605605,-0.5150554530537408,,
561,5.0,5.615615615615615,-0.5562205264220892,,
562,5.0,5.625625625625625,-0.6007649212964508,,
563,5.0,5.635635635635635,-0.6430864975923506,,
564,5.0,5.645645645645645,-0.6843084923624659,,
565,5.0,5.655655655655655,-0.7199934615668925,,
566,5.0,5.665665665665665,-0.7492534668633493,,
567,5.0,5.675675675675675,-0.7687908441439467,,
568,5.0,5.685685685685685,-0.7810091127772946,,
569,5.0,5.695695695695696,-0.7775196316421271,,
570,5.0,5.7057057057057055,-0.7663769940848983,,
571,5.0,5.715715715715716,-0.7608603460839948,,
572,5.0,5.7257257257257255,-0.7307619356808673,,
573,5.0,5.735735735735736,-0.7007841895307843,,
574,5.0,5.7457457457457455,-0.659217861224676,,
575,5.0,5.755755755755756,-0.5990491477816311,,
576,5.0,5.7657657657657655,-0.5476849432912462,,
577,5.0,5.775775775775776,-0.4817272804600022,,
578,5.0,5.7857857857857855,-0.4102281763259805,,
579,5.0,5.795795795795796,-0.323206956738352,,
580,5.0,5.8058058058058055,-0.2526227620013028,,
581,5.0,5.815815815815816,-0.1604560299018644,,
582,5.0,5.8258258258258255,-0.0713296592833107,,
583,5.0,5.835835835835836,0.0257604507574448,,
584,5.0,5.8458458458458455,0.1179501803844282,,
585,5.0,5.855855855855856,0.2025053074046788,,
586,5.0,5.865865865865866,0.289558232227186,,
587,5.0,5.875875875875876,0.360021204576301,,
588,5.0,5.885885885885886,0.4405584326690646,,
589,5.0,5.895895895895896,0.5187724329590772,,
590,5.0,5.905905905905906,0.5772371888623217,,
591,5.0,5.915915915915916,0.6344711000038319,,
592,5.0,5.925925925925926,0.6810670015839095,,
593,5.0,5.935935935935936,0.7166146528705866,,
594,5.0,5.945945945945946,0.7475871978010769,,
595,5.0,5.955955955955956,0.7729892943987414,,
596,5.0,5.965965965965966,0.7713995928045668,,
597,5.0,5.975975975975976,0.7733464790813971,,
598,5.0,5.985985985985986,0.7684092822091972,,
599,5.0,5.995995995995996,0.7608620592727555,,
600,5.0,6.006006006006006,0.7244249786554056,,
601,5.0,6.016016016016016,0.7012752323899498,,
602,5.0,6.026026026026026,0.6686075918973483,,
603,5.0,6.036036036036036,0.6224932842866139,,
604,5.0,6.046046046046046,0.5783503801480554,,
605,5.0,6.056056056056056,0.5436095393246425,,
606,5.0,6.066066066066066,0.4892825877749667,,
607,5.0,6.076076076076076,0.4387361510901723,,
608,5.0,6.086086086086086,0.3793360669650077,,
609,5.0,6.096096096096096,0.3313889419599347,,
610,5.0,6.106106106106106,0.2739604174763845,,
611,5.0,6.116116116116116,0.2451939187928064,,
612,5.0,6.126126126126126,0.1866326045008465,,
613,5.0,6.136136136136136,0.1580045854744463,,
614,5.0,6.146146146146146,0.1222658345624416,,
615,5.0,6.156156156156156,0.1048876208775146,,
616,5.0,6.166166166166166,0.0705827291006016,,
617,5.0,6.176176176176176,0.051897981704505,,
618,5.0,6.186186186186186,0.0299300008661305,,
619,5.0,6.196196196196196,0.0255717403085464,,
620,5.0,6.206206206206206,0.0091259578812623,,
621,5.0,6.216216216216216,-0.0058443027923416,,
622,5.0,6.226226226226226,6.72840358812393e-05,,
623,5.0,6.236236236236236,0.006885054728082,,
624,5.0,6.246246246246246,-0.0006678047417096,,
625,5.0,6.256256256256256,0.0067176949211101,,
626,5.0,6.266266266266266,-0.009025110480562,,
627,5.0,6.276276276276276,-0.0017198112496902,,
628,5.0,6.286286286286286,-0.0086233674615372,,
629,5.0,6.296296296296296,0.0009868476895838,,
630,5.0,6.306306306306306,-0.0195669782554995,,
631,5.0,6.316316316316316,-0.0467132460781392,,
632,5.0,6.326326326326326,-0.0542362608252939,,
633,5.0,6.336336336336336,-0.0778512128324172,,
634,5.0,6.346346346346346,-0.0927214765575965,,
635,5.0,6.356356356356356,-0.1305228270398992,,
636,5.0,6.366366366366366,-0.164551107034036,,
637,5.0,6.376376376376376,-0.2024927815349383,,
638,5.0,6.386386386386386,-0.2470170895492974,,
639,5.0,6.396396396396396,-0.2930563036837988,,
640,5.0,6.406406406406406,-0.350554332870092,,
641,5.0,6.416416416416417,-0.3999552216278276,,
642,5.0,6.426426426426427,-0.4449141126166707,,
643,5.0,6.436436436436437,-0.4959792838392622,,
644,5.0,6.446446446446447,-0.541420928517324,,
645,5.0,6.456456456456457,-0.5945395792672363,,
646,5.0,6.466466466466467,-0.631960598123721,,
647,5.0,6.476476476476477,-0.677562369179228,,
648,5.0,6.486486486486487,-0.7141318504404771,,
649,5.0,6.496496496496497,-0.7350861667746471,,
650,5.0,6.506506506506507,-0.7618795284801937,,
651,5.0,6.516516516516517,-0.7735737263395774,,
652,5.0,6.526526526526527,-0.7857856795836707,,
653,5.0,6.536536536536537,-0.7791769960011335,,
654,5.0,6.546546546546547,-0.7561283827981276,,
655,5.0,6.556556556556557,-0.7440622701418663,,
656,5.0,6.566566566566567,-0.7247420924528319,,
657,5.0,6.576576576576577,-0.6811129640130741,,
658,5.0,6.586586586586587,-0.6199752098392678,,
659,5.0,6.596596596596597,-0.5653783928694912,,
660,5.0,6.606606606606607,-0.495029785826503,,
661,5.0,6.616616616616617,-0.4221303010980927,,
662,5.0,6.626626626626627,-0.3549627700699156,,
663,5.0,6.636636636636637,-0.2670583747507736,,
664,5.0,6.646646646646647,-0.1873182907530946,,
665,5.0,6.656656656656657,-0.0774129329236605,,
666,5.0,6.666666666666667,-0.0052917717477418,,
667,5.0,6.676676676676677,0.0869889456455328,,
668,5.0,6.686686686686687,0.1746407999180923,,
669,5.0,6.696696696696697,0.277310023453256,,
670,5.0,6.706706706706707,0.3438079790068664,,
671,5.0,6.716716716716717,0.4243924800459037,,
672,5.0,6.726726726726727,0.4962598610037712,,
673,5.0,6.736736736736737,0.5738099714231131,,
674,5.0,6.746746746746747,0.6241341984730496,,
675,5.0,6.756756756756757,0.6752013705049275,,
676,5.0,6.766766766766767,0.7042086386473762,,
677,5.0,6.776776776776777,0.7391599540581201,,
678,5.0,6.786786786786787,0.7644582245004228,,
679,5.0,6.796796796796797,0.7682694362832119,,
680,5.0,6.806806806806807,0.7743212752214611,,
681,5.0,6.816816816816817,0.7695062304013892,,
682,5.0,6.826826826826827,0.7629207042668421,,
683,5.0,6.836836836836837,0.7418118781970496,,
684,5.0,6.846846846846847,0.7129796719166418,,
685,5.0,6.856856856856857,0.6740941439997746,,
686,5.0,6.866866866866867,0.6337509466579012,,
687,5.0,6.876876876876877,0.5944911132476732,,
688,5.0,6.886886886886887,0.5516075128622261,,
689,5.0,6.896896896896897,0.490633259189008,,
690,5.0,6.906906906906907,0.4427433944833913,,
691,5.0,6.916916916916917,0.401504971086462,,
692,5.0,6.926926926926927,0.3327552918405345,,
693,5.0,6.936936936936937,0.3089354626791535,,
694,5.0,6.946946946946947,0.2523534977591568,,
695,5.0,6.956956956956957,0.1980999250323166,,
696,5.0,6.966966966966967,0.1625039144944842,,
697,5.0,6.976976976976977,0.1279456667822994,,
698,5.0,6.986986986986987,0.1013014096874947,,
699,5.0,6.996996996996997,0.0811460291485081,,
700,5.0,7.007007007007007,0.0473410575358766,,
701,5.0,7.017017017017017,0.0322512852765137,,
702,5.0,7.027027027027027,0.0208666058697114,,
703,5.0,7.037037037037037,0.006407286864956,,
704,5.0,7.047047047047047,-0.0036288285179727,,
705,5.0,7.057057057057057,-0.0030409553759089,,
706,5.0,7.067067067067067,0.0033646294508817,,
707,5.0,7.077077077077077,0.0013975982089076,,
708,5.0,7.087087087087087,0.0007509238423234,,
709,5.0,7.097097097097097,-0.0013695983042298,,
710,5.0,7.107107107107107,0.0068025612566498,,
711,5.0,7.117117117117117,-0.0060944912437446,,
712,5.0,7.127127127127127,-0.0121853673904639,,
713,5.0,7.137137137137137,-0.0061377491424786,,
714,5.0,7.147147147147147,-0.0243021814580285,,
715,5.0,7.157157157157157,-0.0429498281613648,,
716,5.0,7.167167167167167,-0.0649335868032637,,
717,5.0,7.177177177177177,-0.0887040936846213,,
718,5.0,7.187187187187187,-0.1209554491057296,,
719,5.0,7.197197197197197,-0.1596438236746997,,
720,5.0,7.207207207207207,-0.1959688510672729,,
721,5.0,7.217217217217217,-0.2389817711314686,,
722,5.0,7.227227227227227,-0.2902180843504184,,
723,5.0,7.237237237237237,-0.3318361704126083,,
724,5.0,7.247247247247247,-0.3783144150713559,,
725,5.0,7.257257257257257,-0.4332384137843163,,
726,5.0,7.267267267267267,-0.4825943879710313,,
727,5.0,7.277277277277277,-0.53308711444159,,
728,5.0,7.287287287287287,-0.5798105431867306,,
729,5.0,7.297297297297297,-0.6287666108978659,,
730,5.0,7.307307307307307,-0.6689414851610958,,
731,5.0,7.317317317317317,-0.7075554711541548,,
732,5.0,7.327327327327327,-0.730248345991857,,
733,5.0,7.337337337337337,-0.7573389654974398,,
734,5.0,7.347347347347347,-0.778538673098098,,
735,5.0,7.357357357357357,-0.7674578145582006,,
736,5.0,7.367367367367367,-0.7698238637548279,,
737,5.0,7.377377377377377,-0.7659468936707933,,
738,5.0,7.387387387387387,-0.7520128540058212,,
739,5.0,7.397397397397397,-0.7168709374305213,,
740,5.0,7.407407407407407,-0.6899889163908077,,
741,5.0,7.4174174174174174,-0.6269902459153771,,
742,5.0,7.4274274274274275,-0.5891559859056285,,
743,5.0,7.437437437437437,-0.5109911543458138,,
744,5.0,7.447447447447447,-0.4395148903227185,,
745,5.0,7.4574574574574575,-0.3658580662006889,,
746,5.0,7.4674674674674675,-0.2964419348235738,,
747,5.0,7.477477477477477,-0.1987985107681344,,
748,5.0,7.487487487487487,-0.1098622848751686,,
749,5.0,7.4974974974974975,-0.014630565574577,,
750,5.0,7.5075075075075075,0.0633357456381729,,
751,5.0,7.517517517517517,0.1582203037440921,,
752,5.0,7.527527527527527,0.2434777589302323,,
753,5.0,7.5375375375375375,0.3347716106326859,,
754,5.0,7.5475475475475475,0.3997334848955178,,
755,5.0,7.557557557557557,0.4840728860297227,,
756,5.0,7.567567567567567,0.5380282608414599,,
757,5.0,7.5775775775775776,0.6110880227421576,,
758,5.0,7.587587587587588,0.6726580505675891,,
759,5.0,7.597597597597598,0.7067028377520294,,
760,5.0,7.607607607607608,0.7320113610915719,,
761,5.0,7.617617617617618,0.7590350890619616,,
762,5.0,7.627627627627628,0.773223644155786,,
763,5.0,7.637637637637638,0.780750088899001,,
764,5.0,7.647647647647648,0.7700915379986267,,
765,5.0,7.657657657657658,0.7623634507063166,,
766,5.0,7.667667667667668,0.7510297817544318,,
767,5.0,7.677677677677678,0.7233787094757231,,
768,5.0,7.687687687687688,0.6765741634820279,,
769,5.0,7.697697697697698,0.6471621102366053,,
770,5.0,7.707707707707708,0.6053124621977414,,
771,5.0,7.717717717717718,0.5521093109263986,,
772,5.0,7.727727727727728,0.5017610945112182,,
773,5.0,7.737737737737738,0.4484358940015228,,
774,5.0,7.747747747747748,0.4076051745751513,,
775,5.0,7.757757757757758,0.3579970704594086,,
776,5.0,7.767767767767768,0.3015863355823569,,
777,5.0,7.777777777777778,0.2631025054156535,,
778,5.0,7.787787787787788,0.2153322151725826,,
779,5.0,7.797797797797798,0.1720882074914259,,
780,5.0,7.807807807807808,0.1385294032663543,,
781,5.0,7.817817817817818,0.1157618392671019,,
782,5.0,7.827827827827828,0.083464818093841,,
783,5.0,7.837837837837838,0.0539071323280799,,
784,5.0,7.847847847847848,0.0285362470646924,,
785,5.0,7.857857857857858,0.0222988634006649,,
786,5.0,7.867867867867868,0.0100715950467349,,
787,5.0,7.877877877877878,0.0185956483718679,,
788,5.0,7.887887887887888,0.0085325386599542,,
789,5.0,7.897897897897898,0.0095568943880832,,
790,5.0,7.907907907907908,-0.0025107172031513,,
791,5.0,7.917917917917918,0.000508134740531,,
792,5.0,7.927927927927928,-0.0008463681478585,,
793,5.0,7.937937937937938,0.0107640504789124,,
794,5.0,7.947947947947948,-0.0046807252815925,,
795,5.0,7.957957957957958,-0.0134506588844824,,
796,5.0,7.967967967967968,-0.0192394399924497,,
797,5.0,7.977977977977978,-0.0166257472271024,,
798,5.0,7.987987987987988,-0.0482437309107323,,
799,5.0,7.997997997997998,-0.0636122798370669,,
800,5.0,8.008008008008009,-0.0928140153426035,,
801,5.0,8.018018018018019,-0.117678946294706,,
802,5.0,8.028028028028029,-0.1468170411863636,,
803,5.0,8.038038038038039,-0.1852737500677925,,
804,5.0,8.048048048048049,-0.2242451552029103,,
805,5.0,8.058058058058059,-0.2682703679443882,,
806,5.0,8.068068068068069,-0.316735540274642,,
807,5.0,8.078078078078079,-0.3633241753407646,,
808,5.0,8.088088088088089,-0.4128252393157501,,
809,5.0,8.098098098098099,-0.4775799311127449,,
810,5.0,8.108108108108109,-0.5292519199667498,,
811,5.0,8.118118118118119,-0.5694376713451893,,
812,5.0,8.128128128128129,-0.6144802327917936,,
813,5.0,8.138138138138139,-0.6582503992852614,,
814,5.0,8.148148148148149,-0.6947611751260303,,
815,5.0,8.158158158158159,-0.7199262097887857,,
816,5.0,8.168168168168169,-0.7600511804667016,,
817,5.0,8.178178178178179,-0.7808377702017242,,
818,5.0,8.188188188188189,-0.7920166195870594,,
819,5.0,8.198198198198199,-0.7790020156844264,,
820,5.0,8.208208208208209,-0.774925588294004,,
821,5.0,8.218218218218219,-0.7525657115671874,,
822,5.0,8.228228228228229,-0.7267162196717559,,
823,5.0,8.238238238238239,-0.6856107968203521,,
824,5.0,8.248248248248249,-0.6402149554380107,,
825,5.0,8.258258258258259,-0.5891142480991819,,
826,5.0,8.268268268268269,-0.5305368999278028,,
827,5.0,8.278278278278279,-0.468788722411139,,
828,5.0,8.288288288288289,-0.3861695524316144,,
829,5.0,8.298298298298299,-0.3088667314097131,,
830,5.0,8.308308308308309,-0.2279504204310357,,
831,5.0,8.318318318318319,-0.1249570476602389,,
832,5.0,8.328328328328329,-0.041694117375241,,
833,5.0,8.338338338338339,0.0548591597870608,,
834,5.0,8.348348348348349,0.1357995072335352,,
835,5.0,8.358358358358359,0.2249303105373678,,
836,5.0,8.368368368368369,0.3139290981175752,,
837,5.0,8.378378378378379,0.3891911024749896,,
838,5.0,8.388388388388389,0.4587983250784356,,
839,5.0,8.398398398398399,0.5277601240134382,,
840,5.0,8.408408408408409,0.5910187151211328,,
841,5.0,8.418418418418419,0.6445271694711256,,
842,5.0,8.428428428428429,0.6932259113731074,,
843,5.0,8.438438438438439,0.7256447889296298,,
844,5.0,8.448448448448449,0.7531615876586903,,
845,5.0,8.458458458458459,0.7803056039733394,,
846,5.0,8.468468468468469,0.7688815622025709,,
847,5.0,8.478478478478479,0.782108132228927,,
848,5.0,8.488488488488489,0.7718770303785182,,
849,5.0,8.498498498498499,0.754618897959298,,
850,5.0,8.508508508508509,0.7289563041799356,,
851,5.0,8.518518518518519,0.6977569093354841,,
852,5.0,8.528528528528529,0.6539933975072281,,
853,5.0,8.538538538538539,0.6162629142270729,,
854,5.0,8.548548548548549,0.5757515061508579,,
855,5.0,8.558558558558559,0.5307180170000109,,
856,5.0,8.568568568568569,0.4611353454198398,,
857,5.0,8.578578578578579,0.423510342152218,,
858,5.0,8.588588588588589,0.3715410807148582,,
859,5.0,8.598598598598599,0.3343454075827877,,
860,5.0,8.608608608608609,0.2732991998230294,,
861,5.0,8.618618618618619,0.2261624595745273,,
862,5.0,8.62862862862863,0.175745235353803,,
863,5.0,8.63863863863864,0.1540339810485276,,
864,5.0,8.64864864864865,0.1189877234674399,,
865,5.0,8.65865865865866,0.086010764955161,,
866,5.0,8.66866866866867,0.0605184967840683,,
867,5.0,8.67867867867868,0.037328857843977,,
868,5.0,8.68868868868869,0.0291653458937979,,
869,5.0,8.6986986986987,0.0096186555354028,,
870,5.0,8.70870870870871,0.0126765718677325,,
871,5.0,8.71871871871872,-0.0120277175109067,,
872,5.0,8.72872872872873,-0.0044866027314537,,
873,5.0,8.73873873873874,-0.0044173087574613,,
874,5.0,8.74874874874875,-0.0076660427651798,,
875,5.0,8.75875875875876,-0.0022565773902277,,
876,5.0,8.76876876876877,-0.0004446772072283,,
877,5.0,8.77877877877878,-0.0051197830573446,,
878,5.0,8.78878878878879,-0.0167545647370674,,
879,5.0,8.7987987987988,-0.0146460901081213,,
880,5.0,8.80880880880881,-0.0276937163599805,,
881,5.0,8.81881881881882,-0.0459371666547468,,
882,5.0,8.82882882882883,-0.0496100926084946,,
883,5.0,8.83883883883884,-0.0832925089502232,,
884,5.0,8.84884884884885,-0.1121564288287933,,
885,5.0,8.85885885885886,-0.1408752947567937,,
886,5.0,8.86886886886887,-0.1811211927024876,,
887,5.0,8.87887887887888,-0.220509769677629,,
888,5.0,8.88888888888889,-0.2591402346659225,,
889,5.0,8.8988988988989,-0.3093671422804081,,
890,5.0,8.90890890890891,-0.3535264347401268,,
891,5.0,8.91891891891892,-0.3971964944143762,,
892,5.0,8.92892892892893,-0.4587725351974774,,
893,5.0,8.93893893893894,-0.50528278785589,,
894,5.0,8.94894894894895,-0.5477678886132008,,
895,5.0,8.95895895895896,-0.601727705157241,,
896,5.0,8.96896896896897,-0.6469610004446347,,
897,5.0,8.97897897897898,-0.673440555000839,,
898,5.0,8.98898898898899,-0.7223786141605525,,
899,5.0,8.998998998999,-0.7437274880988504,,
900,5.0,9.00900900900901,-0.7663960659929173,,
901,5.0,9.01901901901902,-0.769105710335702,,
902,5.0,9.02902902902903,-0.7808699123287941,,
903,5.0,9.03903903903904,-0.7755736597316438,,
904,5.0,9.04904904904905,-0.7549778565921338,,
905,5.0,9.05905905905906,-0.7354736543965693,,
906,5.0,9.06906906906907,-0.693667213070843,,
907,5.0,9.07907907907908,-0.6656145587602557,,
908,5.0,9.08908908908909,-0.6081435338761446,,
909,5.0,9.0990990990991,-0.5436769747793412,,
910,5.0,9.10910910910911,-0.4766065978204779,,
911,5.0,9.11911911911912,-0.4132751436894868,,
912,5.0,9.12912912912913,-0.3278840025969241,,
913,5.0,9.13913913913914,-0.2446020902523117,,
914,5.0,9.14914914914915,-0.1679482770062433,,
915,5.0,9.15915915915916,-0.0662389418419747,,
916,5.0,9.16916916916917,0.0279860378960413,,
917,5.0,9.17917917917918,0.1202176465272438,,
918,5.0,9.18918918918919,0.2064443205792142,,
919,5.0,9.1991991991992,0.2911155886577992,,
920,5.0,9.20920920920921,0.3644109152436955,,
921,5.0,9.21921921921922,0.4419039473339728,,
922,5.0,9.22922922922923,0.5167847236680975,,
923,5.0,9.23923923923924,0.5776803156754391,,
924,5.0,9.24924924924925,0.6265953888564487,,
925,5.0,9.25925925925926,0.6835075707345952,,
926,5.0,9.26926926926927,0.7291761005316462,,
927,5.0,9.27927927927928,0.7473874007154224,,
928,5.0,9.28928928928929,0.7621521365779577,,
929,5.0,9.2992992992993,0.7712632560014181,,
930,5.0,9.30930930930931,0.7828324189074186,,
931,5.0,9.31931931931932,0.7842776979914025,,
932,5.0,9.32932932932933,0.7560846966231042,,
933,5.0,9.33933933933934,0.7239268112395867,,
934,5.0,9.34934934934935,0.7017563866785032,,
935,5.0,9.35935935935936,0.6569106757256746,,
936,5.0,9.36936936936937,0.6172853062357587,,
937,5.0,9.37937937937938,0.5748173739504189,,
938,5.0,9.38938938938939,0.5298515657581538,,
939,5.0,9.3993993993994,0.483887270208625,,
940,5.0,9.40940940940941,0.4300801868628882,,
941,5.0,9.41941941941942,0.3846047889806723,,
942,5.0,9.42942942942943,0.323419127902765,,
943,5.0,9.43943943943944,0.2711993804145363,,
944,5.0,9.44944944944945,0.2356271466108559,,
945,5.0,9.45945945945946,0.1948711544904896,,
946,5.0,9.46946946946947,0.1549988020709048,,
947,5.0,9.47947947947948,0.1264855331201606,,
948,5.0,9.48948948948949,0.0991520988117272,,
949,5.0,9.4994994994995,0.0795903076630319,,
950,5.0,9.50950950950951,0.0531256092459686,,
951,5.0,9.51951951951952,0.0366892241079831,,
952,5.0,9.52952952952953,0.0231530996466802,,
953,5.0,9.53953953953954,0.0035227736474567,,
954,5.0,9.54954954954955,0.0006662677254951,,
955,5.0,9.55955955955956,0.0060674685279721,,
956,5.0,9.56956956956957,-0.0065977453770716,,
957,5.0,9.57957957957958,-0.0012912946391335,,
958,5.0,9.58958958958959,-0.0004332553195413,,
959,5.0,9.5995995995996,-0.0121959889611634,,
960,5.0,9.60960960960961,-0.0063559262488845,,
961,5.0,9.61961961961962,-0.0032071390333734,,
962,5.0,9.62962962962963,-0.0135311022411004,,
963,5.0,9.63963963963964,-0.0215260886671742,,
964,5.0,9.64964964964965,-0.0401234359829864,,
965,5.0,9.65965965965966,-0.0483380622835007,,
966,5.0,9.66966966966967,-0.0678222136710266,,
967,5.0,9.67967967967968,-0.1063644798182639,,
968,5.0,9.68968968968969,-0.1215093562120607,,
969,5.0,9.6996996996997,-0.1557028868056571,,
970,5.0,9.70970970970971,-0.2031337524047118,,
971,5.0,9.71971971971972,-0.253777722146264,,
972,5.0,9.72972972972973,-0.2912054729009995,,
973,5.0,9.73973973973974,-0.3450722832132601,,
974,5.0,9.74974974974975,-0.3928708932450518,,
975,5.0,9.75975975975976,-0.4334612345637863,,
976,5.0,9.76976976976977,-0.4926115260204172,,
977,5.0,9.77977977977978,-0.544203928930602,,
978,5.0,9.78978978978979,-0.5836358281149022,,
979,5.0,9.7997997997998,-0.6396201304104213,,
980,5.0,9.80980980980981,-0.68075429312904,,
981,5.0,9.81981981981982,-0.707753109677795,,
982,5.0,9.82982982982983,-0.7451594527687342,,
983,5.0,9.83983983983984,-0.7544575637050062,,
984,5.0,9.84984984984985,-0.7754733089874846,,
985,5.0,9.85985985985986,-0.7758387692897425,,
986,5.0,9.86986986986987,-0.7889172407819782,,
987,5.0,9.87987987987988,-0.7650279076851388,,
988,5.0,9.88988988988989,-0.7382019519650176,,
989,5.0,9.8998998998999,-0.710171536078753,,
990,5.0,9.90990990990991,-0.6721025256816217,,
991,5.0,9.91991991991992,-0.6222288700231641,,
992,5.0,9.92992992992993,-0.561615532817261,,
993,5.0,9.93993993993994,-0.4983905418522709,,
994,5.0,9.94994994994995,-0.4114554047616056,,
995,5.0,9.95995995995996,-0.3535370658381138,,
996,5.0,9.96996996996997,-0.2596968809673521,,
997,5.0,9.97997997997998,-0.1887586581132962,,
998,5.0,9.98998998998999,-0.0845744756461695,,
999,5.0,10.0,0.0038939732610162,,
0,,,,71.0,37.98588026
1,,,,87.0,63.99203399
2,,,,65.0,87.45502852
3,,,,76.0,59.90844847
4,,,,93.0,60.70464529
5,,,,75.0,31.85818104
6,,,,98.0,27.55325512
7,,,,68.0,88.21327519
8,,,,86.0,46.05414594
9,,,,61.0,90.14936228
10,,,,79.0,40.73856427
11,,,,91.0,63.75629742
12,,,,86.0,76.43595811
13,,,,65.0,88.12241627
14,,,,90.0,59.40902284
15,,,,80.0,90.7207735
16,,,,86.0,20.09507654
17,,,,92.0,37.07977298
18,,,,66.0,97.32098137
19,,,,67.0,99.56933584
