,Subject_ID,Time,PPG,HR,HRV
0,17.0,0.0,-0.0017555191800291,,
1,17.0,0.01001001001001,0.0903704525591934,,
2,17.0,0.02002002002002,0.1840189832834223,,
3,17.0,0.03003003003003,0.2756541666588269,,
4,17.0,0.04004004004004,0.3470886058663972,,
5,17.0,0.05005005005005,0.4259140888692191,,
6,17.0,0.06006006006006,0.4917428897506654,,
7,17.0,0.07007007007007,0.5731725211766439,,
8,17.0,0.08008008008008,0.6237328217308659,,
9,17.0,0.09009009009009,0.6611995116246406,,
10,17.0,0.1001001001001,0.7133644701908676,,
11,17.0,0.1101101101101101,0.7446879199106594,,
12,17.0,0.1201201201201201,0.7621149468680131,,
13,17.0,0.1301301301301301,0.7719989868634887,,
14,17.0,0.1401401401401401,0.7776541400600407,,
15,17.0,0.1501501501501501,0.7680149964128813,,
16,17.0,0.1601601601601601,0.7566773352066424,,
17,17.0,0.1701701701701701,0.7431150978000027,,
18,17.0,0.1801801801801801,0.7074218708447163,,
19,17.0,0.1901901901901901,0.6757865628025791,,
20,17.0,0.2002002002002001,0.640226907412566,,
21,17.0,0.2102102102102102,0.5947507645818543,,
22,17.0,0.2202202202202202,0.5464506373626409,,
23,17.0,0.2302302302302302,0.4980685012182991,,
24,17.0,0.2402402402402402,0.434478567091195,,
25,17.0,0.2502502502502503,0.3931424461972239,,
26,17.0,0.2602602602602603,0.3407018188958292,,
27,17.0,0.2702702702702703,0.2956869736101496,,
28,17.0,0.2802802802802803,0.2470420320535503,,
29,17.0,0.2902902902902903,0.2128523181169236,,
30,17.0,0.3003003003003003,0.1687117223966265,,
31,17.0,0.3103103103103103,0.1312517072527704,,
32,17.0,0.3203203203203203,0.1019799467498592,,
33,17.0,0.3303303303303303,0.077110210595569,,
34,17.0,0.3403403403403403,0.0614098906380941,,
35,17.0,0.3503503503503503,0.0349786074899024,,
36,17.0,0.3603603603603603,0.0232181184117546,,
37,17.0,0.3703703703703703,0.0101124994430549,,
38,17.0,0.3803803803803803,0.0026941455423297,,
39,17.0,0.3903903903903903,0.003484664162578,,
40,17.0,0.4004004004004003,-0.0070700833815234,,
41,17.0,0.4104104104104104,0.0011745857285931,,
42,17.0,0.4204204204204204,-0.0006580657308689,,
43,17.0,0.4304304304304304,0.0074653292307878,,
44,17.0,0.4404404404404404,0.0054938925579479,,
45,17.0,0.4504504504504504,-0.0197754440491427,,
46,17.0,0.4604604604604604,-0.012846594347996,,
47,17.0,0.4704704704704704,-0.018697801447559,,
48,17.0,0.4804804804804805,-0.0273634861959426,,
49,17.0,0.4904904904904905,-0.0440781169736961,,
50,17.0,0.5005005005005005,-0.0713885817787917,,
51,17.0,0.5105105105105106,-0.0966493739746774,,
52,17.0,0.5205205205205206,-0.1220112305803065,,
53,17.0,0.5305305305305306,-0.157284041648894,,
54,17.0,0.5405405405405406,-0.1939335716788919,,
55,17.0,0.5505505505505506,-0.2412553483322787,,
56,17.0,0.5605605605605606,-0.2847695669794901,,
57,17.0,0.5705705705705706,-0.3345646012096874,,
58,17.0,0.5805805805805806,-0.3812174174302095,,
59,17.0,0.5905905905905906,-0.4319651056160457,,
60,17.0,0.6006006006006006,-0.4828967721349161,,
61,17.0,0.6106106106106106,-0.5284687192254394,,
62,17.0,0.6206206206206206,-0.5791584267755945,,
63,17.0,0.6306306306306306,-0.6186935545570315,,
64,17.0,0.6406406406406406,-0.671508876765814,,
65,17.0,0.6506506506506506,-0.701563833377149,,
66,17.0,0.6606606606606606,-0.7275403731460347,,
67,17.0,0.6706706706706707,-0.7536665071599548,,
68,17.0,0.6806806806806807,-0.7687578922000633,,
69,17.0,0.6906906906906907,-0.7784789804759243,,
70,17.0,0.7007007007007007,-0.7747933925604898,,
71,17.0,0.7107107107107107,-0.7690322674902134,,
72,17.0,0.7207207207207207,-0.7527203029468262,,
73,17.0,0.7307307307307307,-0.7238165873805932,,
74,17.0,0.7407407407407407,-0.6761956090593283,,
75,17.0,0.7507507507507507,-0.6298872168040016,,
76,17.0,0.7607607607607607,-0.5778906596451293,,
77,17.0,0.7707707707707707,-0.5130012000897466,,
78,17.0,0.7807807807807807,-0.4415275858921508,,
79,17.0,0.7907907907907907,-0.3748829225541944,,
80,17.0,0.8008008008008007,-0.3026690648423646,,
81,17.0,0.8108108108108109,-0.2024943567341368,,
82,17.0,0.8208208208208209,-0.1170302377557299,,
83,17.0,0.8308308308308309,-0.0220471692476395,,
84,17.0,0.8408408408408409,0.0651598746182433,,
85,17.0,0.8508508508508509,0.1505685265197437,,
86,17.0,0.8608608608608609,0.2455969770831728,,
87,17.0,0.8708708708708709,0.3265682492375324,,
88,17.0,0.8808808808808809,0.4151400739559286,,
89,17.0,0.8908908908908909,0.4765909714623853,,
90,17.0,0.9009009009009008,0.5481598246877103,,
91,17.0,0.9109109109109108,0.5970803860721576,,
92,17.0,0.9209209209209208,0.6512408193265408,,
93,17.0,0.9309309309309308,0.7085786719185592,,
94,17.0,0.9409409409409408,0.7267475226403934,,
95,17.0,0.950950950950951,0.7572039537604558,,
96,17.0,0.960960960960961,0.7687284473486161,,
97,17.0,0.970970970970971,0.7833789121227765,,
98,17.0,0.980980980980981,0.7761294717037449,,
99,17.0,0.990990990990991,0.7589012625715024,,
100,17.0,1.001001001001001,0.7472715447830169,,
101,17.0,1.011011011011011,0.7185330384391839,,
102,17.0,1.021021021021021,0.6845527299161988,,
103,17.0,1.031031031031031,0.6434692362564169,,
104,17.0,1.0410410410410411,0.6049076409745072,,
105,17.0,1.0510510510510511,0.5560383307120098,,
106,17.0,1.0610610610610611,0.5018724166877345,,
107,17.0,1.0710710710710711,0.4587007975375975,,
108,17.0,1.0810810810810811,0.4125833441614669,,
109,17.0,1.0910910910910911,0.3539267997389215,,
110,17.0,1.1011011011011012,0.3080871123325149,,
111,17.0,1.1111111111111112,0.2606625588783907,,
112,17.0,1.1211211211211212,0.2090644477462644,,
113,17.0,1.1311311311311312,0.1762136949260362,,
114,17.0,1.1411411411411412,0.1376745352462167,,
115,17.0,1.1511511511511512,0.111160826050294,,
116,17.0,1.1611611611611612,0.0910440185351026,,
117,17.0,1.1711711711711712,0.0599648212676201,,
118,17.0,1.1811811811811812,0.0354721544597509,,
119,17.0,1.1911911911911912,0.0296146261015939,,
120,17.0,1.2012012012012012,0.0132659849830666,,
121,17.0,1.2112112112112112,0.002434984400967,,
122,17.0,1.2212212212212212,-0.0029482745463898,,
123,17.0,1.2312312312312312,0.0063810795673468,,
124,17.0,1.2412412412412412,0.0018610455211296,,
125,17.0,1.2512512512512513,0.0032320225476675,,
126,17.0,1.2612612612612613,-0.0029650755113588,,
127,17.0,1.2712712712712713,-0.0038388997149791,,
128,17.0,1.2812812812812813,-0.0072993362077524,,
129,17.0,1.2912912912912913,-0.008408903327419,,
130,17.0,1.3013013013013013,-0.0213552843298828,,
131,17.0,1.3113113113113113,-0.0378507776972799,,
132,17.0,1.3213213213213213,-0.0444857330685757,,
133,17.0,1.3313313313313313,-0.063777477369871,,
134,17.0,1.3413413413413413,-0.0852712424946362,,
135,17.0,1.351351351351351,-0.0988165955443896,,
136,17.0,1.361361361361361,-0.1519697176442429,,
137,17.0,1.371371371371371,-0.1869155920122792,,
138,17.0,1.3813813813813811,-0.2283304304950416,,
139,17.0,1.3913913913913911,-0.2726224887130812,,
140,17.0,1.4014014014014011,-0.3107358378884585,,
141,17.0,1.4114114114114114,-0.3676044574577544,,
142,17.0,1.4214214214214214,-0.4163846498326165,,
143,17.0,1.4314314314314314,-0.4640623213981943,,
144,17.0,1.4414414414414414,-0.5172875444009405,,
145,17.0,1.4514514514514514,-0.559713435056195,,
146,17.0,1.4614614614614614,-0.6142595670236751,,
147,17.0,1.4714714714714714,-0.6466127436791141,,
148,17.0,1.4814814814814814,-0.7017328202315366,,
149,17.0,1.4914914914914914,-0.7240387118252427,,
150,17.0,1.5015015015015014,-0.7566366485266398,,
151,17.0,1.5115115115115114,-0.7608482624039588,,
152,17.0,1.5215215215215214,-0.7808581944906312,,
153,17.0,1.5315315315315314,-0.7705035041921877,,
154,17.0,1.5415415415415414,-0.7658812257838945,,
155,17.0,1.5515515515515514,-0.7490692096812507,,
156,17.0,1.5615615615615617,-0.7270663350339572,,
157,17.0,1.5715715715715717,-0.6937106997357951,,
158,17.0,1.5815815815815817,-0.6462147645620063,,
159,17.0,1.5915915915915917,-0.5989496816039889,,
160,17.0,1.6016016016016017,-0.5283020477871686,,
161,17.0,1.6116116116116117,-0.4591723216706607,,
162,17.0,1.6216216216216215,-0.3969954482024873,,
163,17.0,1.6316316316316315,-0.3092951787111237,,
164,17.0,1.6416416416416415,-0.2215559858897579,,
165,17.0,1.6516516516516515,-0.132268840053737,,
166,17.0,1.6616616616616615,-0.0444536148199441,,
167,17.0,1.6716716716716715,0.0402562075810072,,
168,17.0,1.6816816816816818,0.135655953639941,,
169,17.0,1.6916916916916918,0.2144977510288338,,
170,17.0,1.7017017017017018,0.2998724344966356,,
171,17.0,1.7117117117117118,0.3825158132765227,,
172,17.0,1.7217217217217218,0.4627962814670573,,
173,17.0,1.7317317317317318,0.5321751017134266,,
174,17.0,1.7417417417417418,0.5910297412710158,,
175,17.0,1.7517517517517518,0.6477983403770178,,
176,17.0,1.7617617617617618,0.6839837428200036,,
177,17.0,1.7717717717717718,0.71982211703374,,
178,17.0,1.7817817817817818,0.7526644613860666,,
179,17.0,1.7917917917917918,0.7736605722312715,,
180,17.0,1.8018018018018016,0.7718000246960114,,
181,17.0,1.811811811811812,0.7839978948097389,,
182,17.0,1.8218218218218216,0.7641184235208899,,
183,17.0,1.831831831831832,0.753082613740845,,
184,17.0,1.8418418418418416,0.7200914654460906,,
185,17.0,1.851851851851852,0.7000287400176196,,
186,17.0,1.8618618618618616,0.6559533856854516,,
187,17.0,1.871871871871872,0.6201589357815027,,
188,17.0,1.8818818818818817,0.5655234495185134,,
189,17.0,1.891891891891892,0.5198484551845759,,
190,17.0,1.901901901901902,0.4680995079367632,,
191,17.0,1.911911911911912,0.4143288606258772,,
192,17.0,1.921921921921922,0.36509265443061,,
193,17.0,1.931931931931932,0.3164644012690176,,
194,17.0,1.941941941941942,0.2787593863018024,,
195,17.0,1.951951951951952,0.2270506169899756,,
196,17.0,1.961961961961962,0.1897162783543544,,
197,17.0,1.971971971971972,0.158646088893376,,
198,17.0,1.981981981981982,0.1099162937219487,,
199,17.0,1.991991991991992,0.0960273686714552,,
200,17.0,2.002002002002002,0.0647278925621301,,
201,17.0,2.012012012012012,0.0491226916146273,,
202,17.0,2.022022022022022,0.013006324737106,,
203,17.0,2.032032032032032,0.0164149274243635,,
204,17.0,2.042042042042042,0.0027716976480011,,
205,17.0,2.052052052052052,0.0082015072562539,,
206,17.0,2.062062062062062,0.0052531327208287,,
207,17.0,2.072072072072072,-0.0019423625197058,,
208,17.0,2.0820820820820822,-0.0085819293782975,,
209,17.0,2.092092092092092,-0.0028298809611677,,
210,17.0,2.1021021021021022,0.0039869699620833,,
211,17.0,2.112112112112112,-0.0074595984269658,,
212,17.0,2.1221221221221223,-0.0016274193267869,,
213,17.0,2.1321321321321323,-0.0147642370187656,,
214,17.0,2.1421421421421423,-0.0211373807873879,,
215,17.0,2.1521521521521523,-0.0441435961609993,,
216,17.0,2.1621621621621623,-0.0550903449358725,,
217,17.0,2.1721721721721723,-0.0807454248154797,,
218,17.0,2.1821821821821823,-0.111738377599225,,
219,17.0,2.1921921921921923,-0.1458411024219927,,
220,17.0,2.2022022022022023,-0.1785132332223539,,
221,17.0,2.2122122122122123,-0.2035400130559005,,
222,17.0,2.2222222222222223,-0.2689161820708618,,
223,17.0,2.2322322322322323,-0.3047748497599623,,
224,17.0,2.2422422422422423,-0.3585351709700952,,
225,17.0,2.2522522522522523,-0.4050854603607559,,
226,17.0,2.2622622622622623,-0.4559398110012793,,
227,17.0,2.2722722722722724,-0.5065755122572012,,
228,17.0,2.2822822822822824,-0.5587194290504727,,
229,17.0,2.2922922922922924,-0.6011421601252169,,
230,17.0,2.3023023023023024,-0.6402521832369412,,
231,17.0,2.3123123123123124,-0.6829155304740169,,
232,17.0,2.3223223223223224,-0.7132148801805378,,
233,17.0,2.3323323323323324,-0.741562497462695,,
234,17.0,2.3423423423423424,-0.7703834983659116,,
235,17.0,2.3523523523523524,-0.7770989358990869,,
236,17.0,2.3623623623623624,-0.7859671715253007,,
237,17.0,2.3723723723723724,-0.7766807640910081,,
238,17.0,2.3823823823823824,-0.7597290015868539,,
239,17.0,2.3923923923923924,-0.7341348681884637,,
240,17.0,2.4024024024024024,-0.7140959274793588,,
241,17.0,2.4124124124124124,-0.6639092722573405,,
242,17.0,2.4224224224224224,-0.6078098604373191,,
243,17.0,2.4324324324324325,-0.54770677834186,,
244,17.0,2.4424424424424425,-0.4724659421280672,,
245,17.0,2.4524524524524525,-0.4014069096565809,,
246,17.0,2.4624624624624625,-0.3341883605827316,,
247,17.0,2.4724724724724725,-0.2429614433541526,,
248,17.0,2.4824824824824825,-0.154188815399118,,
249,17.0,2.4924924924924925,-0.0612150033642121,,
250,17.0,2.5025025025025025,0.0271082877808274,,
251,17.0,2.5125125125125125,0.1136035610893714,,
252,17.0,2.5225225225225225,0.2025474849428372,,
253,17.0,2.5325325325325325,0.2812043099438133,,
254,17.0,2.5425425425425425,0.3644093188776592,,
255,17.0,2.5525525525525525,0.4455334579890326,,
256,17.0,2.5625625625625625,0.5073938562122238,,
257,17.0,2.5725725725725725,0.5786640120611306,,
258,17.0,2.5825825825825826,0.6329046673256083,,
259,17.0,2.592592592592593,0.6876176601153222,,
260,17.0,2.6026026026026026,0.7139119886914088,,
261,17.0,2.612612612612613,0.7411068572077792,,
262,17.0,2.6226226226226226,0.7621861795419064,,
263,17.0,2.6326326326326326,0.7835287892102524,,
264,17.0,2.6426426426426426,0.7761084447973156,,
265,17.0,2.6526526526526526,0.773138487155148,,
266,17.0,2.6626626626626626,0.7602572921290808,,
267,17.0,2.6726726726726726,0.737007455850662,,
268,17.0,2.6826826826826826,0.6985825366543543,,
269,17.0,2.6926926926926926,0.6668213176771608,,
270,17.0,2.702702702702702,0.6286109720214136,,
271,17.0,2.7127127127127126,0.5844866588592444,,
272,17.0,2.722722722722722,0.5331233666585794,,
273,17.0,2.7327327327327327,0.48371460265213,,
274,17.0,2.7427427427427427,0.4329031802650819,,
275,17.0,2.7527527527527527,0.3783284158091891,,
276,17.0,2.7627627627627627,0.3276089862640801,,
277,17.0,2.7727727727727727,0.2805426398659951,,
278,17.0,2.7827827827827827,0.2350245507844287,,
279,17.0,2.7927927927927927,0.1901670392550387,,
280,17.0,2.8028028028028027,0.1622443078107778,,
281,17.0,2.8128128128128127,0.1150322538542053,,
282,17.0,2.8228228228228227,0.0968246584414538,,
283,17.0,2.8328328328328327,0.0678653522980682,,
284,17.0,2.8428428428428427,0.0477163974416235,,
285,17.0,2.8528528528528527,0.024659243280363,,
286,17.0,2.8628628628628627,0.0312049350522816,,
287,17.0,2.8728728728728727,0.0140309220940379,,
288,17.0,2.8828828828828827,0.0046897493540112,,
289,17.0,2.8928928928928928,0.0031979564500951,,
290,17.0,2.9029029029029028,0.0033945939774245,,
291,17.0,2.9129129129129128,0.0023037756389447,,
292,17.0,2.9229229229229228,0.0058491453652438,,
293,17.0,2.932932932932933,0.0038367985860591,,
294,17.0,2.942942942942943,-0.0020920579913541,,
295,17.0,2.952952952952953,-0.0039996414073841,,
296,17.0,2.962962962962963,-0.0088657408699532,,
297,17.0,2.972972972972973,-0.0286401145619442,,
298,17.0,2.982982982982983,-0.0396078318709185,,
299,17.0,2.992992992992993,-0.0514281099100715,,
300,17.0,3.003003003003003,-0.0780196011076117,,
301,17.0,3.013013013013013,-0.0985095244995336,,
302,17.0,3.023023023023023,-0.134718848346767,,
303,17.0,3.033033033033033,-0.1633664702280125,,
304,17.0,3.043043043043043,-0.1997054811094116,,
305,17.0,3.053053053053053,-0.2522411884660518,,
306,17.0,3.063063063063063,-0.3009770810907076,,
307,17.0,3.073073073073073,-0.341960702723982,,
308,17.0,3.083083083083083,-0.4001897455544782,,
309,17.0,3.093093093093093,-0.4449726686088457,,
310,17.0,3.103103103103103,-0.491032152248834,,
311,17.0,3.113113113113113,-0.5396643752888448,,
312,17.0,3.123123123123123,-0.581493729550615,,
313,17.0,3.133133133133133,-0.6461359874950988,,
314,17.0,3.143143143143143,-0.6757390241584905,,
315,17.0,3.153153153153153,-0.7148734254413054,,
316,17.0,3.163163163163163,-0.7380954678606992,,
317,17.0,3.173173173173173,-0.7610698247755174,,
318,17.0,3.183183183183183,-0.7775141799478111,,
319,17.0,3.193193193193193,-0.7795195084626659,,
320,17.0,3.203203203203203,-0.7760679643302174,,
321,17.0,3.2132132132132134,-0.7633836659018102,,
322,17.0,3.2232232232232234,-0.7493649007137273,,
323,17.0,3.2332332332332334,-0.7111628105520548,,
324,17.0,3.2432432432432434,-0.6688242018346062,,
325,17.0,3.253253253253253,-0.6185640272301363,,
326,17.0,3.2632632632632634,-0.5659897031481571,,
327,17.0,3.273273273273273,-0.498359317341279,,
328,17.0,3.2832832832832834,-0.4212725537739336,,
329,17.0,3.293293293293293,-0.3518157439067289,,
330,17.0,3.3033033033033035,-0.2681691402206095,,
331,17.0,3.313313313313313,-0.1728822544321033,,
332,17.0,3.3233233233233235,-0.0984507740767125,,
333,17.0,3.333333333333333,-0.0110927675771124,,
334,17.0,3.3433433433433435,0.0902934660938271,,
335,17.0,3.353353353353353,0.1796887940815521,,
336,17.0,3.3633633633633635,0.2731863624353185,,
337,17.0,3.373373373373373,0.3468440210538148,,
338,17.0,3.3833833833833835,0.4266924752903962,,
339,17.0,3.393393393393393,0.4997997770824035,,
340,17.0,3.4034034034034035,0.5627575147679851,,
341,17.0,3.413413413413413,0.6191475971134717,,
342,17.0,3.4234234234234235,0.6742070679503475,,
343,17.0,3.433433433433433,0.714074502394665,,
344,17.0,3.443443443443444,0.7396784178803382,,
345,17.0,3.4534534534534536,0.7664146286341691,,
346,17.0,3.463463463463464,0.7685315609886059,,
347,17.0,3.4734734734734736,0.7726689565505724,,
348,17.0,3.483483483483484,0.7753864626818538,,
349,17.0,3.4934934934934936,0.7596086316398991,,
350,17.0,3.503503503503504,0.7460969534168287,,
351,17.0,3.5135135135135136,0.7053698589481817,,
352,17.0,3.523523523523524,0.676320490038765,,
353,17.0,3.5335335335335336,0.6368195774482817,,
354,17.0,3.543543543543544,0.5920846938199679,,
355,17.0,3.5535535535535536,0.5451967014887082,,
356,17.0,3.563563563563564,0.4884055463464696,,
357,17.0,3.5735735735735736,0.4467037434980255,,
358,17.0,3.583583583583584,0.3877849559766503,,
359,17.0,3.5935935935935936,0.3450700323166556,,
360,17.0,3.603603603603604,0.2930858651679073,,
361,17.0,3.6136136136136137,0.2500537680675119,,
362,17.0,3.623623623623624,0.2052608900037345,,
363,17.0,3.6336336336336337,0.1648570110109746,,
364,17.0,3.643643643643644,0.134183237787298,,
365,17.0,3.6536536536536537,0.1028772996684199,,
366,17.0,3.663663663663664,0.0728903012577466,,
367,17.0,3.6736736736736737,0.0458482539700332,,
368,17.0,3.683683683683684,0.0368666692370768,,
369,17.0,3.6936936936936937,0.0178862431651587,,
370,17.0,3.703703703703704,0.0046821680907595,,
371,17.0,3.7137137137137137,-0.0044562669884286,,
372,17.0,3.723723723723724,0.0026938333949067,,
373,17.0,3.7337337337337337,-0.0057837599664007,,
374,17.0,3.743743743743744,0.0041120515806269,,
375,17.0,3.7537537537537538,-0.0038875137549012,,
376,17.0,3.763763763763764,-0.0032734875675524,,
377,17.0,3.7737737737737738,0.0054434863047587,,
378,17.0,3.783783783783784,0.0046194288870052,,
379,17.0,3.793793793793794,-0.0042784918381232,,
380,17.0,3.803803803803804,-0.0242634563092887,,
381,17.0,3.813813813813814,-0.0302235550979277,,
382,17.0,3.823823823823824,-0.0530767913414945,,
383,17.0,3.833833833833834,-0.0657592793589597,,
384,17.0,3.843843843843844,-0.0882056691231701,,
385,17.0,3.853853853853854,-0.1228820107179798,,
386,17.0,3.863863863863864,-0.1493754704929487,,
387,17.0,3.873873873873874,-0.1855817652075412,,
388,17.0,3.883883883883884,-0.2392154772203663,,
389,17.0,3.893893893893894,-0.2772892927075346,,
390,17.0,3.903903903903904,-0.3322078147998641,,
391,17.0,3.913913913913914,-0.3813242249762437,,
392,17.0,3.923923923923924,-0.4288205056512614,,
393,17.0,3.933933933933934,-0.486908722442406,,
394,17.0,3.943943943943944,-0.5392896198391499,,
395,17.0,3.953953953953954,-0.5841911601691411,,
396,17.0,3.963963963963964,-0.6178409041692801,,
397,17.0,3.973973973973974,-0.6698014240744108,,
398,17.0,3.983983983983984,-0.7016549329045018,,
399,17.0,3.993993993993994,-0.7361445128906249,,
400,17.0,4.004004004004004,-0.7514953163746197,,
401,17.0,4.014014014014014,-0.7688712761675485,,
402,17.0,4.024024024024024,-0.7809620720099575,,
403,17.0,4.034034034034034,-0.7690333442652224,,
404,17.0,4.044044044044044,-0.7703017907629929,,
405,17.0,4.054054054054054,-0.75019446368675,,
406,17.0,4.064064064064064,-0.726363192673101,,
407,17.0,4.074074074074074,-0.677079287986765,,
408,17.0,4.084084084084084,-0.6345655314022128,,
409,17.0,4.094094094094094,-0.5806227172575796,,
410,17.0,4.104104104104104,-0.5151024412167027,,
411,17.0,4.114114114114114,-0.4444458132696388,,
412,17.0,4.124124124124124,-0.36969644319551,,
413,17.0,4.134134134134134,-0.2911200205933946,,
414,17.0,4.144144144144144,-0.1959666806471416,,
415,17.0,4.1541541541541545,-0.1190736657809404,,
416,17.0,4.1641641641641645,-0.0141050156894093,,
417,17.0,4.174174174174175,0.0711613341991111,,
418,17.0,4.1841841841841845,0.1576530783257342,,
419,17.0,4.1941941941941945,0.2472636144906004,,
420,17.0,4.2042042042042045,0.3257447384032574,,
421,17.0,4.214214214214215,0.4137643068129581,,
422,17.0,4.2242242242242245,0.4775939502575506,,
423,17.0,4.2342342342342345,0.5495216427007702,,
424,17.0,4.2442442442442445,0.6085294750696402,,
425,17.0,4.254254254254255,0.6595081638886648,,
426,17.0,4.2642642642642645,0.6993047811210266,,
427,17.0,4.2742742742742745,0.7352122667294765,,
428,17.0,4.2842842842842845,0.7552060436611779,,
429,17.0,4.294294294294295,0.7667114532809716,,
430,17.0,4.3043043043043046,0.7856458994661103,,
431,17.0,4.314314314314315,0.7740868208893722,,
432,17.0,4.324324324324325,0.7696569206289844,,
433,17.0,4.334334334334335,0.7478438123349118,,
434,17.0,4.344344344344345,0.7246623012762005,,
435,17.0,4.354354354354355,0.6803736861889564,,
436,17.0,4.364364364364365,0.6501994734209823,,
437,17.0,4.374374374374375,0.6042316770567564,,
438,17.0,4.384384384384385,0.5499919268674072,,
439,17.0,4.394394394394395,0.4996381032778769,,
440,17.0,4.404404404404405,0.4666605245451596,,
441,17.0,4.414414414414415,0.4060244182538368,,
442,17.0,4.424424424424425,0.3533543951115765,,
443,17.0,4.434434434434435,0.299955103463653,,
444,17.0,4.444444444444445,0.2522667153447009,,
445,17.0,4.454454454454455,0.2199739770284337,,
446,17.0,4.464464464464465,0.169100171463702,,
447,17.0,4.474474474474475,0.1435159475714654,,
448,17.0,4.484484484484485,0.1026728489749028,,
449,17.0,4.494494494494495,0.0839712844370599,,
450,17.0,4.504504504504505,0.0643086091014644,,
451,17.0,4.514514514514515,0.0380160844286656,,
452,17.0,4.524524524524525,0.0326286738885394,,
453,17.0,4.534534534534535,0.0120318330243864,,
454,17.0,4.544544544544545,0.0058406173510966,,
455,17.0,4.554554554554555,0.000407356303625,,
456,17.0,4.564564564564565,0.0151796658660598,,
457,17.0,4.574574574574575,-0.0036769547367258,,
458,17.0,4.584584584584585,0.0036395471181218,,
459,17.0,4.594594594594595,0.0005170617867005,,
460,17.0,4.604604604604605,0.001574541304667,,
461,17.0,4.614614614614615,3.103647511521791e-05,,
462,17.0,4.624624624624625,-0.0091930232606527,,
463,17.0,4.634634634634635,-0.0042201568269789,,
464,17.0,4.644644644644645,-0.0367637614928217,,
465,17.0,4.654654654654655,-0.0437447351508098,,
466,17.0,4.664664664664665,-0.0684008665812606,,
467,17.0,4.674674674674675,-0.0836680453161749,,
468,17.0,4.684684684684685,-0.1133017325801601,,
469,17.0,4.694694694694695,-0.1536176526095023,,
470,17.0,4.704704704704705,-0.1755753211801608,,
471,17.0,4.714714714714715,-0.2285421767052004,,
472,17.0,4.724724724724725,-0.2678001950574459,,
473,17.0,4.734734734734735,-0.3251432685306946,,
474,17.0,4.744744744744745,-0.3687524558397031,,
475,17.0,4.754754754754755,-0.4179123717555923,,
476,17.0,4.764764764764765,-0.4683824750803813,,
477,17.0,4.774774774774775,-0.5227097510801656,,
478,17.0,4.784784784784785,-0.5640040694709785,,
479,17.0,4.794794794794795,-0.6113418051729744,,
480,17.0,4.804804804804805,-0.650190601887103,,
481,17.0,4.814814814814815,-0.6910750261992978,,
482,17.0,4.824824824824825,-0.725618951683382,,
483,17.0,4.834834834834835,-0.7434694415727072,,
484,17.0,4.844844844844845,-0.7688145904635351,,
485,17.0,4.854854854854855,-0.7793046376290369,,
486,17.0,4.864864864864865,-0.7773453003139497,,
487,17.0,4.874874874874875,-0.7647847613921702,,
488,17.0,4.884884884884885,-0.7506007481139513,,
489,17.0,4.894894894894895,-0.735106103236207,,
490,17.0,4.904904904904905,-0.6933989831882436,,
491,17.0,4.914914914914915,-0.6428969528576994,,
492,17.0,4.924924924924925,-0.5890088869261539,,
493,17.0,4.934934934934935,-0.5251969963520831,,
494,17.0,4.944944944944945,-0.4606579893897563,,
495,17.0,4.954954954954955,-0.3784207724554012,,
496,17.0,4.964964964964965,-0.3100121594344758,,
497,17.0,4.974974974974975,-0.2290681166319575,,
498,17.0,4.984984984984985,-0.1284274751683594,,
499,17.0,4.994994994994995,-0.0362888396601095,,
500,17.0,5.005005005005005,0.0403989085439676,,
501,17.0,5.015015015015015,0.1325549584704974,,
502,17.0,5.025025025025025,0.2220944444638358,,
503,17.0,5.035035035035035,0.3153961729956593,,
504,17.0,5.045045045045045,0.3867805126721746,,
505,17.0,5.055055055055055,0.4623304685670015,,
506,17.0,5.065065065065065,0.529068483837037,,
507,17.0,5.075075075075075,0.5929214274553486,,
508,17.0,5.085085085085085,0.6528478767771265,,
509,17.0,5.095095095095095,0.6934992661404557,,
510,17.0,5.105105105105105,0.7306825832998665,,
511,17.0,5.115115115115115,0.7532804772605853,,
512,17.0,5.125125125125125,0.7678204456222828,,
513,17.0,5.135135135135135,0.7779279921161735,,
514,17.0,5.145145145145145,0.7825427654627974,,
515,17.0,5.155155155155155,0.7683188259928575,,
516,17.0,5.165165165165165,0.7548391913997834,,
517,17.0,5.175175175175175,0.7221990917186383,,
518,17.0,5.185185185185185,0.6981355114877063,,
519,17.0,5.195195195195195,0.6555682230959554,,
520,17.0,5.205205205205205,0.6131726537251551,,
521,17.0,5.215215215215215,0.5721782807320214,,
522,17.0,5.225225225225225,0.5231563363950757,,
523,17.0,5.235235235235235,0.4730266868384788,,
524,17.0,5.245245245245245,0.4192383048512297,,
525,17.0,5.255255255255255,0.373530524871429,,
526,17.0,5.265265265265265,0.32032167319411,,
527,17.0,5.275275275275275,0.2651872319009322,,
528,17.0,5.285285285285285,0.2284833626855252,,
529,17.0,5.295295295295295,0.1959287561114435,,
530,17.0,5.305305305305305,0.1473458883520662,,
531,17.0,5.315315315315315,0.1063168617713557,,
532,17.0,5.325325325325325,0.0895822419206751,,
533,17.0,5.335335335335335,0.0634375703001565,,
534,17.0,5.345345345345345,0.0517228494074768,,
535,17.0,5.355355355355355,0.0247721709259116,,
536,17.0,5.365365365365365,0.0196202383620202,,
537,17.0,5.375375375375375,0.0063208028219321,,
538,17.0,5.385385385385385,-0.0007950132047778,,
539,17.0,5.395395395395395,-0.0036812042792648,,
540,17.0,5.405405405405405,-0.000616081892799,,
541,17.0,5.415415415415415,0.0059315026968644,,
542,17.0,5.425425425425425,-0.0115615169947052,,
543,17.0,5.435435435435435,-0.0084257692903289,,
544,17.0,5.445445445445445,-0.0120336122680118,,
545,17.0,5.455455455455455,-0.0111790213854246,,
546,17.0,5.465465465465465,-0.0185136023827427,,
547,17.0,5.475475475475475,-0.018254334102907,,
548,17.0,5.485485485485485,-0.0409075991614351,,
549,17.0,5.495495495495495,-0.0646231906840098,,
550,17.0,5.505505505505505,-0.0852669827270757,,
551,17.0,5.515515515515515,-0.1087380796930242,,
552,17.0,5.525525525525525,-0.1324864255655375,,
553,17.0,5.535535535535535,-0.171900639312844,,
554,17.0,5.545545545545545,-0.2187626930105651,,
555,17.0,5.555555555555555,-0.2602800228855441,,
556,17.0,5.565565565565565,-0.3145475697012369,,
557,17.0,5.575575575575575,-0.3554087999552813,,
558,17.0,5.585585585585585,-0.4114964356263763,,
559,17.0,5.595595595595595,-0.4611202566085106,,
560,17.0,5.605605605605605,-0.5057969554281923,,
561,17.0,5.615615615615615,-0.5530466323383413,,
562,17.0,5.625625625625625,-0.600261308437069,,
563,17.0,5.635635635635635,-0.6495999881098984,,
564,17.0,5.645645645645645,-0.6854705524308452,,
565,17.0,5.655655655655655,-0.7193245875448552,,
566,17.0,5.665665665665665,-0.7391929331184385,,
567,17.0,5.675675675675675,-0.7560573368243684,,
568,17.0,5.685685685685685,-0.7722213925242095,,
569,17.0,5.695695695695696,-0.7765188149577169,,
570,17.0,5.7057057057057055,-0.7777888275053696,,
571,17.0,5.715715715715716,-0.7598730853434255,,
572,17.0,5.7257257257257255,-0.7440786851173654,,
573,17.0,5.735735735735736,-0.709953330600302,,
574,17.0,5.7457457457457455,-0.6557104775806919,,
575,17.0,5.755755755755756,-0.6213042853671888,,
576,17.0,5.7657657657657655,-0.5423355932247821,,
577,17.0,5.775775775775776,-0.475276825319848,,
578,17.0,5.7857857857857855,-0.4076356677346858,,
579,17.0,5.795795795795796,-0.3258774334999664,,
580,17.0,5.8058058058058055,-0.2551603350704726,,
581,17.0,5.815815815815816,-0.1586535852295317,,
582,17.0,5.8258258258258255,-0.063224363338369,,
583,17.0,5.835835835835836,0.0250078734732684,,
584,17.0,5.8458458458458455,0.1165486991316091,,
585,17.0,5.855855855855856,0.1976448104828391,,
586,17.0,5.865865865865866,0.2867152796801974,,
587,17.0,5.875875875875876,0.3798678245899052,,
588,17.0,5.885885885885886,0.4490257097516812,,
589,17.0,5.895895895895896,0.5149279220174023,,
590,17.0,5.905905905905906,0.5772378842883128,,
591,17.0,5.915915915915916,0.6330081296942536,,
592,17.0,5.925925925925926,0.6732669706323703,,
593,17.0,5.935935935935936,0.7121288188990399,,
594,17.0,5.945945945945946,0.7447610755692826,,
595,17.0,5.955955955955956,0.764621453845339,,
596,17.0,5.965965965965966,0.7795298584725198,,
597,17.0,5.975975975975976,0.7778888661884769,,
598,17.0,5.985985985985986,0.7745329559635687,,
599,17.0,5.995995995995996,0.7591981613908817,,
600,17.0,6.006006006006006,0.7390335450674055,,
601,17.0,6.016016016016016,0.7103947660016554,,
602,17.0,6.026026026026026,0.6722608420121389,,
603,17.0,6.036036036036036,0.6352816834266068,,
604,17.0,6.046046046046046,0.579007377218664,,
605,17.0,6.056056056056056,0.5275610890171427,,
606,17.0,6.066066066066066,0.4949699939862608,,
607,17.0,6.076076076076076,0.4279787409045576,,
608,17.0,6.086086086086086,0.380592102382439,,
609,17.0,6.096096096096096,0.3297710227410951,,
610,17.0,6.106106106106106,0.2812655536885228,,
611,17.0,6.116116116116116,0.2360174683321566,,
612,17.0,6.126126126126126,0.1907948289025016,,
613,17.0,6.136136136136136,0.1583570800894676,,
614,17.0,6.146146146146146,0.1220123865482611,,
615,17.0,6.156156156156156,0.1008413477928587,,
616,17.0,6.166166166166166,0.0726078033468714,,
617,17.0,6.176176176176176,0.0423876761899707,,
618,17.0,6.186186186186186,0.0388362475963324,,
619,17.0,6.196196196196196,0.0225929424883891,,
620,17.0,6.206206206206206,0.0172502355995358,,
621,17.0,6.216216216216216,0.0042346547185233,,
622,17.0,6.226226226226226,-0.0041931974459383,,
623,17.0,6.236236236236236,0.0018083944137046,,
624,17.0,6.246246246246246,0.0080960822418544,,
625,17.0,6.256256256256256,-0.0029551111758979,,
626,17.0,6.266266266266266,0.0083239212973834,,
627,17.0,6.276276276276276,0.0049353617592951,,
628,17.0,6.286286286286286,-0.0045639752401643,,
629,17.0,6.296296296296296,-0.016353877478001,,
630,17.0,6.306306306306306,-0.0234646154552138,,
631,17.0,6.316316316316316,-0.0316406965205583,,
632,17.0,6.326326326326326,-0.0505638301765195,,
633,17.0,6.336336336336336,-0.0759502373951814,,
634,17.0,6.346346346346346,-0.0979435287541509,,
635,17.0,6.356356356356356,-0.1181463441157091,,
636,17.0,6.366366366366366,-0.1647355229975788,,
637,17.0,6.376376376376376,-0.2085006345901274,,
638,17.0,6.386386386386386,-0.2497565079013937,,
639,17.0,6.396396396396396,-0.2917480929446746,,
640,17.0,6.406406406406406,-0.3402442786177969,,
641,17.0,6.416416416416417,-0.3958822328973022,,
642,17.0,6.426426426426427,-0.4549958601356732,,
643,17.0,6.436436436436437,-0.4927069759971914,,
644,17.0,6.446446446446447,-0.5523489245244856,,
645,17.0,6.456456456456457,-0.5883993868058077,,
646,17.0,6.466466466466467,-0.6230947001441606,,
647,17.0,6.476476476476477,-0.6780783005876263,,
648,17.0,6.486486486486487,-0.708627800389754,,
649,17.0,6.496496496496497,-0.7288342590845391,,
650,17.0,6.506506506506507,-0.7723894010165542,,
651,17.0,6.516516516516517,-0.7725136816102229,,
652,17.0,6.526526526526527,-0.7838374526741834,,
653,17.0,6.536536536536537,-0.7736348300003087,,
654,17.0,6.546546546546547,-0.7557825872607521,,
655,17.0,6.556556556556557,-0.735208131510809,,
656,17.0,6.566566566566567,-0.7129256922527747,,
657,17.0,6.576576576576577,-0.676691613294003,,
658,17.0,6.586586586586587,-0.6171823053667072,,
659,17.0,6.596596596596597,-0.5708735311273551,,
660,17.0,6.606606606606607,-0.5093240940921759,,
661,17.0,6.616616616616617,-0.438070890734081,,
662,17.0,6.626626626626627,-0.3465414372906549,,
663,17.0,6.636636636636637,-0.2666545821283136,,
664,17.0,6.646646646646647,-0.1738611358747264,,
665,17.0,6.656656656656657,-0.0940892623511741,,
666,17.0,6.666666666666667,0.0066033886161359,,
667,17.0,6.676676676676677,0.0929339543644609,,
668,17.0,6.686686686686687,0.1851295699878256,,
669,17.0,6.696696696696697,0.2597936697056561,,
670,17.0,6.706706706706707,0.3447805017647447,,
671,17.0,6.716716716716717,0.4346597419891259,,
672,17.0,6.726726726726727,0.5053436200394195,,
673,17.0,6.736736736736737,0.5627296709469785,,
674,17.0,6.746746746746747,0.6175229293011057,,
675,17.0,6.756756756756757,0.6611391451752232,,
676,17.0,6.766766766766767,0.7118017218168464,,
677,17.0,6.776776776776777,0.7433816728149498,,
678,17.0,6.786786786786787,0.75711822484517,,
679,17.0,6.796796796796797,0.7737508470392354,,
680,17.0,6.806806806806807,0.7805028181289911,,
681,17.0,6.816816816816817,0.7783675509441623,,
682,17.0,6.826826826826827,0.7653759407427243,,
683,17.0,6.836836836836837,0.7477780552433723,,
684,17.0,6.846846846846847,0.7175049393849278,,
685,17.0,6.856856856856857,0.6770139420965388,,
686,17.0,6.866866866866867,0.6342292536397687,,
687,17.0,6.876876876876877,0.5972621792302604,,
688,17.0,6.886886886886887,0.5515172331171859,,
689,17.0,6.896896896896897,0.4901593860358504,,
690,17.0,6.906906906906907,0.4447051470004284,,
691,17.0,6.916916916916917,0.4038589223693341,,
692,17.0,6.926926926926927,0.3323220099620068,,
693,17.0,6.936936936936937,0.2979534420750521,,
694,17.0,6.946946946946947,0.2471199642667075,,
695,17.0,6.956956956956957,0.1997503461661421,,
696,17.0,6.966966966966967,0.1815879664989632,,
697,17.0,6.976976976976977,0.1354423098437669,,
698,17.0,6.986986986986987,0.102005762243958,,
699,17.0,6.996996996996997,0.0757759397054847,,
700,17.0,7.007007007007007,0.061479320049982,,
701,17.0,7.017017017017017,0.0297868462705689,,
702,17.0,7.027027027027027,0.0295021390382547,,
703,17.0,7.037037037037037,0.0067433163157337,,
704,17.0,7.047047047047047,0.0047484720397228,,
705,17.0,7.057057057057057,-0.0056666797751283,,
706,17.0,7.067067067067067,-0.0060971328730768,,
707,17.0,7.077077077077077,0.0037985023043791,,
708,17.0,7.087087087087087,-0.0068380640173547,,
709,17.0,7.097097097097097,0.0014822678035814,,
710,17.0,7.107107107107107,0.0073933968137386,,
711,17.0,7.117117117117117,0.0004073988037165,,
712,17.0,7.127127127127127,-0.0102161409519515,,
713,17.0,7.137137137137137,-0.018108218876517,,
714,17.0,7.147147147147147,-0.0343328282336979,,
715,17.0,7.157157157157157,-0.0488470305140145,,
716,17.0,7.167167167167167,-0.0733370747493868,,
717,17.0,7.177177177177177,-0.1000861664038496,,
718,17.0,7.187187187187187,-0.1166692915023435,,
719,17.0,7.197197197197197,-0.1534967111822442,,
720,17.0,7.207207207207207,-0.1992058702282158,,
721,17.0,7.217217217217217,-0.247207919134743,,
722,17.0,7.227227227227227,-0.287326945375089,,
723,17.0,7.237237237237237,-0.3251234536493412,,
724,17.0,7.247247247247247,-0.3833745439744583,,
725,17.0,7.257257257257257,-0.4208912878345411,,
726,17.0,7.267267267267267,-0.477970741662444,,
727,17.0,7.277277277277277,-0.5393162156208493,,
728,17.0,7.287287287287287,-0.5817785964705819,,
729,17.0,7.297297297297297,-0.6188653479590951,,
730,17.0,7.307307307307307,-0.6619032564891704,,
731,17.0,7.317317317317317,-0.6961595315152634,,
732,17.0,7.327327327327327,-0.7243289547835488,,
733,17.0,7.337337337337337,-0.7598167880840417,,
734,17.0,7.347347347347347,-0.7741761176338712,,
735,17.0,7.357357357357357,-0.7773706765571344,,
736,17.0,7.367367367367367,-0.7842956652567179,,
737,17.0,7.377377377377377,-0.7573998542419401,,
738,17.0,7.387387387387387,-0.7493759485298814,,
739,17.0,7.397397397397397,-0.7202641554208253,,
740,17.0,7.407407407407407,-0.6809823937135137,,
741,17.0,7.4174174174174174,-0.6367279628409932,,
742,17.0,7.4274274274274275,-0.5866989979054658,,
743,17.0,7.437437437437437,-0.5154881931223778,,
744,17.0,7.447447447447447,-0.4486907672587991,,
745,17.0,7.4574574574574575,-0.3714541765037754,,
746,17.0,7.4674674674674675,-0.2781549056379172,,
747,17.0,7.477477477477477,-0.1977939495597078,,
748,17.0,7.487487487487487,-0.1081483974334319,,
749,17.0,7.4974974974974975,-0.0295224044154198,,
750,17.0,7.5075075075075075,0.075322971704081,,
751,17.0,7.517517517517517,0.1523494626641881,,
752,17.0,7.527527527527527,0.2471325250296813,,
753,17.0,7.5375375375375375,0.3332531012392551,,
754,17.0,7.5475475475475475,0.4131417875989743,,
755,17.0,7.557557557557557,0.4714116774908203,,
756,17.0,7.567567567567567,0.5517249013326077,,
757,17.0,7.5775775775775776,0.6127012547731974,,
758,17.0,7.587587587587588,0.6581138624849178,,
759,17.0,7.597597597597598,0.7077130495769883,,
760,17.0,7.607607607607608,0.7441808310822426,,
761,17.0,7.617617617617618,0.7681637944138405,,
762,17.0,7.627627627627628,0.7745033157313888,,
763,17.0,7.637637637637638,0.7749457354465227,,
764,17.0,7.647647647647648,0.7816920165420947,,
765,17.0,7.657657657657658,0.7760136284809394,,
766,17.0,7.667667667667668,0.7438799966075965,,
767,17.0,7.677677677677678,0.7140782137239011,,
768,17.0,7.687687687687688,0.6858907798087842,,
769,17.0,7.697697697697698,0.6394459737078223,,
770,17.0,7.707707707707708,0.6060516505299371,,
771,17.0,7.717717717717718,0.5547657745452922,,
772,17.0,7.727727727727728,0.5087419617086989,,
773,17.0,7.737737737737738,0.4635173707728679,,
774,17.0,7.747747747747748,0.4028983891754256,,
775,17.0,7.757757757757758,0.3497513773971376,,
776,17.0,7.767767767767768,0.3053881256458636,,
777,17.0,7.777777777777778,0.2681740442273692,,
778,17.0,7.787787787787788,0.2171114013580339,,
779,17.0,7.797797797797798,0.1849878512156974,,
780,17.0,7.807807807807808,0.1429075918976312,,
781,17.0,7.817817817817818,0.1106296794501622,,
782,17.0,7.827827827827828,0.0857675343923554,,
783,17.0,7.837837837837838,0.0490804228845313,,
784,17.0,7.847847847847848,0.0343211596234396,,
785,17.0,7.857857857857858,0.0284463308604933,,
786,17.0,7.867867867867868,0.0061150065701766,,
787,17.0,7.877877877877878,0.0063862636289372,,
788,17.0,7.887887887887888,-0.0049965819854891,,
789,17.0,7.897897897897898,0.00759208354181,,
790,17.0,7.907907907907908,0.0010999449053094,,
791,17.0,7.917917917917918,0.0047761526325039,,
792,17.0,7.927927927927928,-0.0054499815279263,,
793,17.0,7.937937937937938,-0.0104409526080932,,
794,17.0,7.947947947947948,-0.0034609299831624,,
795,17.0,7.957957957957958,-0.0014598669089618,,
796,17.0,7.967967967967968,-0.0164545788676711,,
797,17.0,7.977977977977978,-0.0327595171603639,,
798,17.0,7.987987987987988,-0.0356927265009165,,
799,17.0,7.997997997997998,-0.0574533229152202,,
800,17.0,8.008008008008009,-0.0931897498945084,,
801,17.0,8.018018018018019,-0.1133545808813842,,
802,17.0,8.028028028028029,-0.1462285665820114,,
803,17.0,8.038038038038039,-0.1855940002921169,,
804,17.0,8.048048048048049,-0.2234594158062376,,
805,17.0,8.058058058058059,-0.2774547624901389,,
806,17.0,8.068068068068069,-0.3204205413576415,,
807,17.0,8.078078078078079,-0.3720752161419587,,
808,17.0,8.088088088088089,-0.420400544033903,,
809,17.0,8.098098098098099,-0.4696938984736609,,
810,17.0,8.108108108108109,-0.5190522631848631,,
811,17.0,8.118118118118119,-0.568978068400426,,
812,17.0,8.128128128128129,-0.6159544459558751,,
813,17.0,8.138138138138139,-0.6683573620331174,,
814,17.0,8.148148148148149,-0.694626914145176,,
815,17.0,8.158158158158159,-0.731402703004998,,
816,17.0,8.168168168168169,-0.7421380736765805,,
817,17.0,8.178178178178179,-0.7619658938990027,,
818,17.0,8.188188188188189,-0.7826909507292527,,
819,17.0,8.198198198198199,-0.7743792540016149,,
820,17.0,8.208208208208209,-0.7731081178154743,,
821,17.0,8.218218218218219,-0.7518967795364607,,
822,17.0,8.228228228228229,-0.7290849042127723,,
823,17.0,8.238238238238239,-0.6854368195251731,,
824,17.0,8.248248248248249,-0.642947670055148,,
825,17.0,8.258258258258259,-0.5876704694273188,,
826,17.0,8.268268268268269,-0.5267813596548298,,
827,17.0,8.278278278278279,-0.4605395150549266,,
828,17.0,8.288288288288289,-0.3884140982460969,,
829,17.0,8.298298298298299,-0.3011346135057337,,
830,17.0,8.308308308308309,-0.2145526062935701,,
831,17.0,8.318318318318319,-0.132847552358412,,
832,17.0,8.328328328328329,-0.0440446536463775,,
833,17.0,8.338338338338339,0.0488485092160091,,
834,17.0,8.348348348348349,0.1304040397804112,,
835,17.0,8.358358358358359,0.2224162331680106,,
836,17.0,8.368368368368369,0.3102753955767525,,
837,17.0,8.378378378378379,0.3951029306754794,,
838,17.0,8.388388388388389,0.4655652112773964,,
839,17.0,8.398398398398399,0.5360595344113497,,
840,17.0,8.408408408408409,0.5835187491026801,,
841,17.0,8.418418418418419,0.6493984691082302,,
842,17.0,8.428428428428429,0.6891790368915577,,
843,17.0,8.438438438438439,0.7196646059691645,,
844,17.0,8.448448448448449,0.7517617677638411,,
845,17.0,8.458458458458459,0.7693003360572134,,
846,17.0,8.468468468468469,0.7726253679962621,,
847,17.0,8.478478478478479,0.7838867815556594,,
848,17.0,8.488488488488489,0.7666865762927607,,
849,17.0,8.498498498498499,0.7512462905927191,,
850,17.0,8.508508508508509,0.7335582048574198,,
851,17.0,8.518518518518519,0.6938959041779984,,
852,17.0,8.528528528528529,0.654778159836325,,
853,17.0,8.538538538538539,0.6154552367017122,,
854,17.0,8.548548548548549,0.5623877009057847,,
855,17.0,8.558558558558559,0.5175864372454401,,
856,17.0,8.568568568568569,0.4705997232729153,,
857,17.0,8.578578578578579,0.4174823879679938,,
858,17.0,8.588588588588589,0.3709591824193123,,
859,17.0,8.598598598598599,0.3209674930890748,,
860,17.0,8.608608608608609,0.2795928822132211,,
861,17.0,8.618618618618619,0.2240681212084047,,
862,17.0,8.62862862862863,0.1718109074901347,,
863,17.0,8.63863863863864,0.1450289272899285,,
864,17.0,8.64864864864865,0.1057848629684818,,
865,17.0,8.65865865865866,0.0837700126988456,,
866,17.0,8.66866866866867,0.0634521273345818,,
867,17.0,8.67867867867868,0.0486025795413365,,
868,17.0,8.68868868868869,0.0285050513213545,,
869,17.0,8.6986986986987,0.0150031551377008,,
870,17.0,8.70870870870871,0.0066393169478803,,
871,17.0,8.71871871871872,4.616026094684785e-05,,
872,17.0,8.72872872872873,0.0022458694590266,,
873,17.0,8.73873873873874,0.0081113662809084,,
874,17.0,8.74874874874875,-0.0063954456086288,,
875,17.0,8.75875875875876,-0.0115247411376577,,
876,17.0,8.76876876876877,-0.0020768185377828,,
877,17.0,8.77877877877878,0.0028201793338546,,
878,17.0,8.78878878878879,-0.007815267257237,,
879,17.0,8.7987987987988,-0.009137043080299,,
880,17.0,8.80880880880881,-0.0234437190314928,,
881,17.0,8.81881881881882,-0.0332241886421769,,
882,17.0,8.82882882882883,-0.0657080263528696,,
883,17.0,8.83883883883884,-0.0815315314605357,,
884,17.0,8.84884884884885,-0.1005149327423208,,
885,17.0,8.85885885885886,-0.1430902614196817,,
886,17.0,8.86886886886887,-0.1798017016163452,,
887,17.0,8.87887887887888,-0.2163879695969581,,
888,17.0,8.88888888888889,-0.2526492132515933,,
889,17.0,8.8988988988989,-0.3037260937770644,,
890,17.0,8.90890890890891,-0.3512329785192023,,
891,17.0,8.91891891891892,-0.4062358662342999,,
892,17.0,8.92892892892893,-0.455500840732198,,
893,17.0,8.93893893893894,-0.5152033456640231,,
894,17.0,8.94894894894895,-0.5537631113990359,,
895,17.0,8.95895895895896,-0.5947845302485602,,
896,17.0,8.96896896896897,-0.6510963440686404,,
897,17.0,8.97897897897898,-0.6811525205151665,,
898,17.0,8.98898898898899,-0.7142886415674131,,
899,17.0,8.998998998999,-0.7501908575588362,,
900,17.0,9.00900900900901,-0.7609277064414591,,
901,17.0,9.01901901901902,-0.7868091715743225,,
902,17.0,9.02902902902903,-0.7790880148797102,,
903,17.0,9.03903903903904,-0.7845538859618266,,
904,17.0,9.04904904904905,-0.7596590783833329,,
905,17.0,9.05905905905906,-0.7411085464681371,,
906,17.0,9.06906906906907,-0.7062622884517206,,
907,17.0,9.07907907907908,-0.6513466079058464,,
908,17.0,9.08908908908909,-0.6051376966943812,,
909,17.0,9.0990990990991,-0.5503403068121541,,
910,17.0,9.10910910910911,-0.4782503791883291,,
911,17.0,9.11911911911912,-0.4072195045995326,,
912,17.0,9.12912912912913,-0.3329649951547023,,
913,17.0,9.13913913913914,-0.2406966617316424,,
914,17.0,9.14914914914915,-0.160178632514216,,
915,17.0,9.15915915915916,-0.0669122345410646,,
916,17.0,9.16916916916917,0.0168969271797048,,
917,17.0,9.17917917917918,0.1082738577323472,,
918,17.0,9.18918918918919,0.2037008482871775,,
919,17.0,9.1991991991992,0.2828201819701237,,
920,17.0,9.20920920920921,0.3632812502804395,,
921,17.0,9.21921921921922,0.4410080409534522,,
922,17.0,9.22922922922923,0.5136540777002561,,
923,17.0,9.23923923923924,0.5785261789191446,,
924,17.0,9.24924924924925,0.6251395266284633,,
925,17.0,9.25925925925926,0.6775811905652339,,
926,17.0,9.26926926926927,0.7230369917039778,,
927,17.0,9.27927927927928,0.7470023658170523,,
928,17.0,9.28928928928929,0.7732432795391171,,
929,17.0,9.2992992992993,0.7808330725438116,,
930,17.0,9.30930930930931,0.7850884065169476,,
931,17.0,9.31931931931932,0.7618888377384467,,
932,17.0,9.32932932932933,0.7549597793347191,,
933,17.0,9.33933933933934,0.7356354463662254,,
934,17.0,9.34934934934935,0.6995789634800506,,
935,17.0,9.35935935935936,0.6704386140503117,,
936,17.0,9.36936936936937,0.6171828756948976,,
937,17.0,9.37937937937938,0.5773631741587854,,
938,17.0,9.38938938938939,0.53990478513249,,
939,17.0,9.3993993993994,0.4873701634608009,,
940,17.0,9.40940940940941,0.4380227266664911,,
941,17.0,9.41941941941942,0.380405757199617,,
942,17.0,9.42942942942943,0.3233471564315515,,
943,17.0,9.43943943943944,0.2705533225469347,,
944,17.0,9.44944944944945,0.2363993571749074,,
945,17.0,9.45945945945946,0.1963244385009124,,
946,17.0,9.46946946946947,0.1570755575147296,,
947,17.0,9.47947947947948,0.1212090549359142,,
948,17.0,9.48948948948949,0.0876612863422085,,
949,17.0,9.4994994994995,0.0768027367663487,,
950,17.0,9.50950950950951,0.0490064811365857,,
951,17.0,9.51951951951952,0.0264613065649422,,
952,17.0,9.52952952952953,0.0116118663189053,,
953,17.0,9.53953953953954,0.0167224663562127,,
954,17.0,9.54954954954955,0.010736504538129,,
955,17.0,9.55955955955956,0.002510147364022,,
956,17.0,9.56956956956957,0.0038821086745148,,
957,17.0,9.57957957957958,-0.0020649032275908,,
958,17.0,9.58958958958959,-0.0056908548251891,,
959,17.0,9.5995995995996,-0.0035677789146523,,
960,17.0,9.60960960960961,0.0034604972431459,,
961,17.0,9.61961961961962,0.0030339226768376,,
962,17.0,9.62962962962963,-0.013097239391203,,
963,17.0,9.63963963963964,-0.0197500785049149,,
964,17.0,9.64964964964965,-0.0380328501558865,,
965,17.0,9.65965965965966,-0.0446300648271592,,
966,17.0,9.66966966966967,-0.0742810099373548,,
967,17.0,9.67967967967968,-0.0951306332546202,,
968,17.0,9.68968968968969,-0.1362351442871804,,
969,17.0,9.6996996996997,-0.1592031124879027,,
970,17.0,9.70970970970971,-0.2108030601669424,,
971,17.0,9.71971971971972,-0.2515585094363325,,
972,17.0,9.72972972972973,-0.2955351968769825,,
973,17.0,9.73973973973974,-0.3472879543666942,,
974,17.0,9.74974974974975,-0.3888070904415379,,
975,17.0,9.75975975975976,-0.4364944162553177,,
976,17.0,9.76976976976977,-0.4914752993093609,,
977,17.0,9.77977977977978,-0.5438969632963258,,
978,17.0,9.78978978978979,-0.5912574304806907,,
979,17.0,9.7997997997998,-0.6294560003777988,,
980,17.0,9.80980980980981,-0.6757869036806505,,
981,17.0,9.81981981981982,-0.7062542625344997,,
982,17.0,9.82982982982983,-0.7412296847701487,,
983,17.0,9.83983983983984,-0.7602853596929632,,
984,17.0,9.84984984984985,-0.7733119769230856,,
985,17.0,9.85985985985986,-0.7757330213893262,,
986,17.0,9.86986986986987,-0.7697615808607486,,
987,17.0,9.87987987987988,-0.7631299711999004,,
988,17.0,9.88988988988989,-0.7524968964046301,,
989,17.0,9.8998998998999,-0.7086011293111698,,
990,17.0,9.90990990990991,-0.671645647666787,,
991,17.0,9.91991991991992,-0.6276306187527267,,
992,17.0,9.92992992992993,-0.5609603576741907,,
993,17.0,9.93993993993994,-0.5023088530918831,,
994,17.0,9.94994994994995,-0.4239302404948878,,
995,17.0,9.95995995995996,-0.3424789011316622,,
996,17.0,9.96996996996997,-0.2621426802360138,,
997,17.0,9.97997997997998,-0.1716920153148792,,
998,17.0,9.98998998998999,-0.0907437331119784,,
999,17.0,10.0,-0.0001939681985973,,
0,,,,71.0,37.98588026
1,,,,87.0,63.99203399
2,,,,65.0,87.45502852
3,,,,76.0,59.90844847
4,,,,93.0,60.70464529
5,,,,75.0,31.85818104
6,,,,98.0,27.55325512
7,,,,68.0,88.21327519
8,,,,86.0,46.05414594
9,,,,61.0,90.14936228
10,,,,79.0,40.73856427
11,,,,91.0,63.75629742
12,,,,86.0,76.43595811
13,,,,65.0,88.12241627
14,,,,90.0,59.40902284
15,,,,80.0,90.7207735
16,,,,86.0,20.09507654
17,,,,92.0,37.07977298
18,,,,66.0,97.32098137
19,,,,67.0,99.56933584
