,Subject_ID,Time,PPG,HR,HRV
0,3.0,0.0,-0.0019636062165796,,
1,3.0,0.01001001001001,0.0886881761614118,,
2,3.0,0.02002002002002,0.1807035822465129,,
3,3.0,0.03003003003003,0.269242334396974,,
4,3.0,0.04004004004004,0.3611336409316237,,
5,3.0,0.05005005005005,0.4271002782996719,,
6,3.0,0.06006006006006,0.4962436235155357,,
7,3.0,0.07007007007007,0.5614592652473279,,
8,3.0,0.08008008008008,0.6326195396628077,,
9,3.0,0.09009009009009,0.660377315799547,,
10,3.0,0.1001001001001,0.7108071647211605,,
11,3.0,0.1101101101101101,0.7324216450504296,,
12,3.0,0.1201201201201201,0.7560729410287557,,
13,3.0,0.1301301301301301,0.7761508820339577,,
14,3.0,0.1401401401401401,0.7828492572994276,,
15,3.0,0.1501501501501501,0.7705333123432004,,
16,3.0,0.1601601601601601,0.7655180606295968,,
17,3.0,0.1701701701701701,0.733122213827277,,
18,3.0,0.1801801801801801,0.7034893058696253,,
19,3.0,0.1901901901901901,0.6774499847098996,,
20,3.0,0.2002002002002001,0.6442830665160102,,
21,3.0,0.2102102102102102,0.598659942472597,,
22,3.0,0.2202202202202202,0.5447844887653212,,
23,3.0,0.2302302302302302,0.491071541582505,,
24,3.0,0.2402402402402402,0.4474536972635988,,
25,3.0,0.2502502502502503,0.3858777665807518,,
26,3.0,0.2602602602602603,0.3411768982994304,,
27,3.0,0.2702702702702703,0.2932030444102216,,
28,3.0,0.2802802802802803,0.241234230029234,,
29,3.0,0.2902902902902903,0.2094157377115836,,
30,3.0,0.3003003003003003,0.1632302338809108,,
31,3.0,0.3103103103103103,0.1321178224643223,,
32,3.0,0.3203203203203203,0.1068326862408058,,
33,3.0,0.3303303303303303,0.065110300333162,,
34,3.0,0.3403403403403403,0.0496449627134273,,
35,3.0,0.3503503503503503,0.0338022164525511,,
36,3.0,0.3603603603603603,0.0234459897363063,,
37,3.0,0.3703703703703703,0.0003457010187252,,
38,3.0,0.3803803803803803,0.0104438260160428,,
39,3.0,0.3903903903903903,0.0011847720185407,,
40,3.0,0.4004004004004003,-0.0030779807050423,,
41,3.0,0.4104104104104104,-0.0043698749311182,,
42,3.0,0.4204204204204204,-0.0077950331112368,,
43,3.0,0.4304304304304304,-0.0069404276881523,,
44,3.0,0.4404404404404404,0.0013489414697501,,
45,3.0,0.4504504504504504,0.0040816090341504,,
46,3.0,0.4604604604604604,-0.0070541261078134,,
47,3.0,0.4704704704704704,-0.0190899861255271,,
48,3.0,0.4804804804804805,-0.0311007065118126,,
49,3.0,0.4904904904904905,-0.0526965749805233,,
50,3.0,0.5005005005005005,-0.0692655705079091,,
51,3.0,0.5105105105105106,-0.0893695665290397,,
52,3.0,0.5205205205205206,-0.1237036038472105,,
53,3.0,0.5305305305305306,-0.1528914346275384,,
54,3.0,0.5405405405405406,-0.1870797249439657,,
55,3.0,0.5505505505505506,-0.2403154020561013,,
56,3.0,0.5605605605605606,-0.2815610728852235,,
57,3.0,0.5705705705705706,-0.3342875558440735,,
58,3.0,0.5805805805805806,-0.3828036322784451,,
59,3.0,0.5905905905905906,-0.4318961299045566,,
60,3.0,0.6006006006006006,-0.4811992328140239,,
61,3.0,0.6106106106106106,-0.5308018262251709,,
62,3.0,0.6206206206206206,-0.5793475334443079,,
63,3.0,0.6306306306306306,-0.6183692784383226,,
64,3.0,0.6406406406406406,-0.6647284950586474,,
65,3.0,0.6506506506506506,-0.6978265874318647,,
66,3.0,0.6606606606606606,-0.7333867484573264,,
67,3.0,0.6706706706706707,-0.7588472863063153,,
68,3.0,0.6806806806806807,-0.7741885896390743,,
69,3.0,0.6906906906906907,-0.7841371843731664,,
70,3.0,0.7007007007007007,-0.7715650606158068,,
71,3.0,0.7107107107107107,-0.7679940672553704,,
72,3.0,0.7207207207207207,-0.755995695059816,,
73,3.0,0.7307307307307307,-0.7235120307144098,,
74,3.0,0.7407407407407407,-0.6887227128058321,,
75,3.0,0.7507507507507507,-0.6307922550292047,,
76,3.0,0.7607607607607607,-0.5780720142284277,,
77,3.0,0.7707707707707707,-0.5227451194960283,,
78,3.0,0.7807807807807807,-0.4500448581161325,,
79,3.0,0.7907907907907907,-0.3691693370034405,,
80,3.0,0.8008008008008007,-0.2877089990435648,,
81,3.0,0.8108108108108109,-0.2100209973487701,,
82,3.0,0.8208208208208209,-0.1135914310849292,,
83,3.0,0.8308308308308309,-0.0176717707026128,,
84,3.0,0.8408408408408409,0.0667786380240657,,
85,3.0,0.8508508508508509,0.159595173721034,,
86,3.0,0.8608608608608609,0.235038741581807,,
87,3.0,0.8708708708708709,0.3188551870143065,,
88,3.0,0.8808808808808809,0.4092672577992952,,
89,3.0,0.8908908908908909,0.4886302724418713,,
90,3.0,0.9009009009009008,0.5462110696418687,,
91,3.0,0.9109109109109108,0.6058423714942519,,
92,3.0,0.9209209209209208,0.6621120698779033,,
93,3.0,0.9309309309309308,0.6974991073700433,,
94,3.0,0.9409409409409408,0.7300202103985962,,
95,3.0,0.950950950950951,0.7717571748290653,,
96,3.0,0.960960960960961,0.7684899573793028,,
97,3.0,0.970970970970971,0.7822527389000169,,
98,3.0,0.980980980980981,0.7720774352834057,,
99,3.0,0.990990990990991,0.7642963558345088,,
100,3.0,1.001001001001001,0.7412311717288562,,
101,3.0,1.011011011011011,0.724593119923115,,
102,3.0,1.021021021021021,0.6858335965519204,,
103,3.0,1.031031031031031,0.6520970102178916,,
104,3.0,1.0410410410410411,0.6017030022445545,,
105,3.0,1.0510510510510511,0.5520314704776663,,
106,3.0,1.0610610610610611,0.516582414785716,,
107,3.0,1.0710710710710711,0.4658858498444008,,
108,3.0,1.0810810810810811,0.4034803224209783,,
109,3.0,1.0910910910910911,0.3654101352232929,,
110,3.0,1.1011011011011012,0.3058844050788896,,
111,3.0,1.1111111111111112,0.2657626519765245,,
112,3.0,1.1211211211211212,0.2177995070097713,,
113,3.0,1.1311311311311312,0.1629518953131557,,
114,3.0,1.1411411411411412,0.1410069558895821,,
115,3.0,1.1511511511511512,0.1053493955600765,,
116,3.0,1.1611611611611612,0.0799043729087489,,
117,3.0,1.1711711711711712,0.0625521970317193,,
118,3.0,1.1811811811811812,0.0389872421784745,,
119,3.0,1.1911911911911912,0.0249254623746226,,
120,3.0,1.2012012012012012,0.0278934550637095,,
121,3.0,1.2112112112112112,0.0130646117529459,,
122,3.0,1.2212212212212212,0.0108844371654143,,
123,3.0,1.2312312312312312,0.0040503130337863,,
124,3.0,1.2412412412412412,-0.0030575991062562,,
125,3.0,1.2512512512512513,0.0002001604252642,,
126,3.0,1.2612612612612613,-0.0010444547412369,,
127,3.0,1.2712712712712713,0.004520424042731,,
128,3.0,1.2812812812812813,-0.0017824262947945,,
129,3.0,1.2912912912912913,-0.0073685902993568,,
130,3.0,1.3013013013013013,-0.0192973972374872,,
131,3.0,1.3113113113113113,-0.0290656320368025,,
132,3.0,1.3213213213213213,-0.0418272086552067,,
133,3.0,1.3313313313313313,-0.071121381202595,,
134,3.0,1.3413413413413413,-0.0921476464839357,,
135,3.0,1.351351351351351,-0.108903240669595,,
136,3.0,1.361361361361361,-0.1539042347235099,,
137,3.0,1.371371371371371,-0.1934937224693526,,
138,3.0,1.3813813813813811,-0.2191054657349242,,
139,3.0,1.3913913913913911,-0.2698309845891281,,
140,3.0,1.4014014014014011,-0.3212563668237435,,
141,3.0,1.4114114114114114,-0.370740374037691,,
142,3.0,1.4214214214214214,-0.4213707026760941,,
143,3.0,1.4314314314314314,-0.4684778096023727,,
144,3.0,1.4414414414414414,-0.5205412466681193,,
145,3.0,1.4514514514514514,-0.5644193562988233,,
146,3.0,1.4614614614614614,-0.6184484655508362,,
147,3.0,1.4714714714714714,-0.6583884781621722,,
148,3.0,1.4814814814814814,-0.6822184213412098,,
149,3.0,1.4914914914914914,-0.7303169196012527,,
150,3.0,1.5015015015015014,-0.7553481596751631,,
151,3.0,1.5115115115115114,-0.7631585197472868,,
152,3.0,1.5215215215215214,-0.7749337137860527,,
153,3.0,1.5315315315315314,-0.7707236809029837,,
154,3.0,1.5415415415415414,-0.7748901499417675,,
155,3.0,1.5515515515515514,-0.74996138615272,,
156,3.0,1.5615615615615617,-0.7273823464824413,,
157,3.0,1.5715715715715717,-0.7031313031389878,,
158,3.0,1.5815815815815817,-0.6526060351059436,,
159,3.0,1.5915915915915917,-0.6035099844933346,,
160,3.0,1.6016016016016017,-0.5360257893050095,,
161,3.0,1.6116116116116117,-0.4560524797636686,,
162,3.0,1.6216216216216215,-0.3929158670808347,,
163,3.0,1.6316316316316315,-0.3067809985391894,,
164,3.0,1.6416416416416415,-0.2190767440318505,,
165,3.0,1.6516516516516515,-0.1377699299238265,,
166,3.0,1.6616616616616615,-0.0381033642106431,,
167,3.0,1.6716716716716715,0.039270414965138,,
168,3.0,1.6816816816816818,0.1384141912835466,,
169,3.0,1.6916916916916918,0.228937589425743,,
170,3.0,1.7017017017017018,0.299187140550686,,
171,3.0,1.7117117117117118,0.3901258951334442,,
172,3.0,1.7217217217217218,0.4607179006481898,,
173,3.0,1.7317317317317318,0.5269600499881301,,
174,3.0,1.7417417417417418,0.5921935050747524,,
175,3.0,1.7517517517517518,0.6474592386870301,,
176,3.0,1.7617617617617618,0.6912736813790964,,
177,3.0,1.7717717717717718,0.7216325830755783,,
178,3.0,1.7817817817817818,0.7505229920817932,,
179,3.0,1.7917917917917918,0.7688307341667197,,
180,3.0,1.8018018018018016,0.7739986234830473,,
181,3.0,1.811811811811812,0.7761753991330399,,
182,3.0,1.8218218218218216,0.7686337531546644,,
183,3.0,1.831831831831832,0.7525250968953138,,
184,3.0,1.8418418418418416,0.7335832241247022,,
185,3.0,1.851851851851852,0.6982275192306034,,
186,3.0,1.8618618618618616,0.6610455800096773,,
187,3.0,1.871871871871872,0.6080259919440274,,
188,3.0,1.8818818818818817,0.5730300873842403,,
189,3.0,1.891891891891892,0.5232525459137507,,
190,3.0,1.901901901901902,0.4740432382846309,,
191,3.0,1.911911911911912,0.4101123910654257,,
192,3.0,1.921921921921922,0.3660685101108965,,
193,3.0,1.931931931931932,0.3252469165393892,,
194,3.0,1.941941941941942,0.2729869615837692,,
195,3.0,1.951951951951952,0.2279224644514703,,
196,3.0,1.961961961961962,0.1846783131981731,,
197,3.0,1.971971971971972,0.1373303663122934,,
198,3.0,1.981981981981982,0.1070243771119296,,
199,3.0,1.991991991991992,0.0798242572666812,,
200,3.0,2.002002002002002,0.0667473288293247,,
201,3.0,2.012012012012012,0.0444547864812354,,
202,3.0,2.022022022022022,0.0334792303236865,,
203,3.0,2.032032032032032,0.0204868172538956,,
204,3.0,2.042042042042042,0.0026586978791538,,
205,3.0,2.052052052052052,-0.000272103585495,,
206,3.0,2.062062062062062,0.0008685033951201,,
207,3.0,2.072072072072072,0.0038462750366342,,
208,3.0,2.0820820820820822,-0.0009892340524867,,
209,3.0,2.092092092092092,0.0002839213483411,,
210,3.0,2.1021021021021022,-0.0058117190637137,,
211,3.0,2.112112112112112,-0.0098118818789051,,
212,3.0,2.1221221221221223,0.0024098906344991,,
213,3.0,2.1321321321321323,-0.0199253537640396,,
214,3.0,2.1421421421421423,-0.0264543630921908,,
215,3.0,2.1521521521521523,-0.0449588477599028,,
216,3.0,2.1621621621621623,-0.0670380604454398,,
217,3.0,2.1721721721721723,-0.0775650241449423,,
218,3.0,2.1821821821821823,-0.0972329044231656,,
219,3.0,2.1921921921921923,-0.1302226124606576,,
220,3.0,2.2022022022022023,-0.1713711027954812,,
221,3.0,2.2122122122122123,-0.2205021823439202,,
222,3.0,2.2222222222222223,-0.2643529372415527,,
223,3.0,2.2322322322322323,-0.3089224693258883,,
224,3.0,2.2422422422422423,-0.3526602188671636,,
225,3.0,2.2522522522522523,-0.403026169454797,,
226,3.0,2.2622622622622623,-0.4570107014790718,,
227,3.0,2.2722722722722724,-0.5102540778699981,,
228,3.0,2.2822822822822824,-0.5536954815131447,,
229,3.0,2.2922922922922924,-0.61008405951985,,
230,3.0,2.3023023023023024,-0.6384105912097794,,
231,3.0,2.3123123123123124,-0.6798222766968472,,
232,3.0,2.3223223223223224,-0.7207446568651061,,
233,3.0,2.3323323323323324,-0.7443485432982779,,
234,3.0,2.3423423423423424,-0.7542388029410163,,
235,3.0,2.3523523523523524,-0.7667052070846992,,
236,3.0,2.3623623623623624,-0.7844737658975951,,
237,3.0,2.3723723723723724,-0.7743626209257612,,
238,3.0,2.3823823823823824,-0.7585236402264194,,
239,3.0,2.3923923923923924,-0.741487288052014,,
240,3.0,2.4024024024024024,-0.7075911058539389,,
241,3.0,2.4124124124124124,-0.664643346293626,,
242,3.0,2.4224224224224224,-0.605062328980645,,
243,3.0,2.4324324324324325,-0.5498886388342804,,
244,3.0,2.4424424424424425,-0.4764081041487263,,
245,3.0,2.4524524524524525,-0.4163238317856642,,
246,3.0,2.4624624624624625,-0.3204808538380826,,
247,3.0,2.4724724724724725,-0.2438821755012782,,
248,3.0,2.4824824824824825,-0.1527048145493426,,
249,3.0,2.4924924924924925,-0.0694793752839107,,
250,3.0,2.5025025025025025,0.0270258862324227,,
251,3.0,2.5125125125125125,0.1118268309895967,,
252,3.0,2.5225225225225225,0.2057099683965638,,
253,3.0,2.5325325325325325,0.2831754337015648,,
254,3.0,2.5425425425425425,0.374087254058035,,
255,3.0,2.5525525525525525,0.4428171658418189,,
256,3.0,2.5625625625625625,0.5167156006689748,,
257,3.0,2.5725725725725725,0.5733707104341518,,
258,3.0,2.5825825825825826,0.632071751200828,,
259,3.0,2.592592592592593,0.6761714894670114,,
260,3.0,2.6026026026026026,0.720373483760912,,
261,3.0,2.612612612612613,0.7494222136229698,,
262,3.0,2.6226226226226226,0.7780105590766796,,
263,3.0,2.6326326326326326,0.7749298126376463,,
264,3.0,2.6426426426426426,0.7775390882159516,,
265,3.0,2.6526526526526526,0.7800022067468451,,
266,3.0,2.6626626626626626,0.7610651893028778,,
267,3.0,2.6726726726726726,0.7377428154756875,,
268,3.0,2.6826826826826826,0.6923506584182649,,
269,3.0,2.6926926926926926,0.6674072216216006,,
270,3.0,2.702702702702702,0.6255603522801784,,
271,3.0,2.7127127127127126,0.5808580628726709,,
272,3.0,2.722722722722722,0.5383292083083742,,
273,3.0,2.7327327327327327,0.4888679784141603,,
274,3.0,2.7427427427427427,0.4205618256621306,,
275,3.0,2.7527527527527527,0.3775360777194552,,
276,3.0,2.7627627627627627,0.3273721206724073,,
277,3.0,2.7727727727727727,0.2755256845630242,,
278,3.0,2.7827827827827827,0.2406021606885824,,
279,3.0,2.7927927927927927,0.1961498665030964,,
280,3.0,2.8028028028028027,0.1493944746712432,,
281,3.0,2.8128128128128127,0.1197404465080931,,
282,3.0,2.8228228228228227,0.1018636625202235,,
283,3.0,2.8328328328328327,0.0613463690551547,,
284,3.0,2.8428428428428427,0.0493486216951134,,
285,3.0,2.8528528528528527,0.0278217603541996,,
286,3.0,2.8628628628628627,0.0173306138905205,,
287,3.0,2.8728728728728727,0.0097849628670393,,
288,3.0,2.8828828828828827,0.0041448083809675,,
289,3.0,2.8928928928928928,-0.0010436528037107,,
290,3.0,2.9029029029029028,-0.0088208244027792,,
291,3.0,2.9129129129129128,0.0008762041146375,,
292,3.0,2.9229229229229228,0.0114632461894953,,
293,3.0,2.932932932932933,-0.0029348685391468,,
294,3.0,2.942942942942943,-0.0094126478467952,,
295,3.0,2.952952952952953,-0.0068305862897196,,
296,3.0,2.962962962962963,-0.0076540798579304,,
297,3.0,2.972972972972973,-0.0125101688767463,,
298,3.0,2.982982982982983,-0.0374823858867751,,
299,3.0,2.992992992992993,-0.0512319248722022,,
300,3.0,3.003003003003003,-0.0805124068483844,,
301,3.0,3.013013013013013,-0.0948798378088438,,
302,3.0,3.023023023023023,-0.1316075983654011,,
303,3.0,3.033033033033033,-0.1707505927247275,,
304,3.0,3.043043043043043,-0.2019801632357356,,
305,3.0,3.053053053053053,-0.2564825034537273,,
306,3.0,3.063063063063063,-0.2988684266369559,,
307,3.0,3.073073073073073,-0.3357472955515531,,
308,3.0,3.083083083083083,-0.3944767680538272,,
309,3.0,3.093093093093093,-0.4367309114340836,,
310,3.0,3.103103103103103,-0.5013278200771878,,
311,3.0,3.113113113113113,-0.5429798074372426,,
312,3.0,3.123123123123123,-0.5898526607170201,,
313,3.0,3.133133133133133,-0.6387793320503578,,
314,3.0,3.143143143143143,-0.6719296321313758,,
315,3.0,3.153153153153153,-0.7110142187794852,,
316,3.0,3.163163163163163,-0.7401900040655089,,
317,3.0,3.173173173173173,-0.7491111508526277,,
318,3.0,3.183183183183183,-0.7721731579381539,,
319,3.0,3.193193193193193,-0.7839933469732124,,
320,3.0,3.203203203203203,-0.773992744170528,,
321,3.0,3.2132132132132134,-0.763665633326316,,
322,3.0,3.2232232232232234,-0.7381254233767623,,
323,3.0,3.2332332332332334,-0.7182288387484154,,
324,3.0,3.2432432432432434,-0.671046392734968,,
325,3.0,3.253253253253253,-0.6204523793791532,,
326,3.0,3.2632632632632634,-0.5553636993873287,,
327,3.0,3.273273273273273,-0.4894932625531532,,
328,3.0,3.2832832832832834,-0.4308878143291304,,
329,3.0,3.293293293293293,-0.3518996531651128,,
330,3.0,3.3033033033033035,-0.2647412811268021,,
331,3.0,3.313313313313313,-0.1808807073505179,,
332,3.0,3.3233233233233235,-0.0939327961635695,,
333,3.0,3.333333333333333,0.0034976535736687,,
334,3.0,3.3433433433433435,0.0886624477035122,,
335,3.0,3.353353353353353,0.1816699950836127,,
336,3.0,3.3633633633633635,0.2683220645738297,,
337,3.0,3.373373373373373,0.3523320882951391,,
338,3.0,3.3833833833833835,0.4219729093013144,,
339,3.0,3.393393393393393,0.4950908516698175,,
340,3.0,3.4034034034034035,0.5644306212794493,,
341,3.0,3.413413413413413,0.6213172194002891,,
342,3.0,3.4234234234234235,0.6666511278627509,,
343,3.0,3.433433433433433,0.7066930144942538,,
344,3.0,3.443443443443444,0.7398014542476335,,
345,3.0,3.4534534534534536,0.7584707852143523,,
346,3.0,3.463463463463464,0.7713451494949246,,
347,3.0,3.4734734734734736,0.7832274624238312,,
348,3.0,3.483483483483484,0.7769419024618058,,
349,3.0,3.4934934934934936,0.7585948410755822,,
350,3.0,3.503503503503504,0.7369735944095521,,
351,3.0,3.5135135135135136,0.701243770648834,,
352,3.0,3.523523523523524,0.673246362215982,,
353,3.0,3.5335335335335336,0.6409922596592514,,
354,3.0,3.543543543543544,0.5889813153021275,,
355,3.0,3.5535535535535536,0.5421830219353388,,
356,3.0,3.563563563563564,0.4966501927947515,,
357,3.0,3.5735735735735736,0.4485238151835238,,
358,3.0,3.583583583583584,0.4025461649578113,,
359,3.0,3.5935935935935936,0.3397842057495637,,
360,3.0,3.603603603603604,0.2914831856167438,,
361,3.0,3.6136136136136137,0.2435911950742023,,
362,3.0,3.623623623623624,0.204935794028737,,
363,3.0,3.6336336336336337,0.1732108173259696,,
364,3.0,3.643643643643644,0.1336826768726313,,
365,3.0,3.6536536536536537,0.0925422202565909,,
366,3.0,3.663663663663664,0.073858276413217,,
367,3.0,3.6736736736736737,0.0525179871915384,,
368,3.0,3.683683683683684,0.0355255619448078,,
369,3.0,3.6936936936936937,0.021805787114913,,
370,3.0,3.703703703703704,0.0186397711157537,,
371,3.0,3.7137137137137137,0.0134168967169876,,
372,3.0,3.723723723723724,0.0042676328623996,,
373,3.0,3.7337337337337337,0.0014578910111669,,
374,3.0,3.743743743743744,0.0057674559976445,,
375,3.0,3.7537537537537538,0.0069201541616247,,
376,3.0,3.763763763763764,-0.0029704635494952,,
377,3.0,3.7737737737737738,-0.0105161608619657,,
378,3.0,3.783783783783784,-0.0012620911176905,,
379,3.0,3.793793793793794,-0.0143319580248888,,
380,3.0,3.803803803803804,-0.0229752660296586,,
381,3.0,3.813813813813814,-0.0316033414112439,,
382,3.0,3.823823823823824,-0.0497042527323839,,
383,3.0,3.833833833833834,-0.0695450105163433,,
384,3.0,3.843843843843844,-0.0994812275365658,,
385,3.0,3.853853853853854,-0.1184754840532253,,
386,3.0,3.863863863863864,-0.1528804865016217,,
387,3.0,3.873873873873874,-0.1991723650815047,,
388,3.0,3.883883883883884,-0.2392038667342706,,
389,3.0,3.893893893893894,-0.2789494927625136,,
390,3.0,3.903903903903904,-0.3286348620865186,,
391,3.0,3.913913913913914,-0.3933014312051311,,
392,3.0,3.923923923923924,-0.4304807381783206,,
393,3.0,3.933933933933934,-0.4851802331854756,,
394,3.0,3.943943943943944,-0.5281439965649577,,
395,3.0,3.953953953953954,-0.5777740650906418,,
396,3.0,3.963963963963964,-0.6274550137415688,,
397,3.0,3.973973973973974,-0.6620009407525359,,
398,3.0,3.983983983983984,-0.6968740396850577,,
399,3.0,3.993993993993994,-0.7240940798050792,,
400,3.0,4.004004004004004,-0.7520236117989046,,
401,3.0,4.014014014014014,-0.7777667517144463,,
402,3.0,4.024024024024024,-0.7804225706698205,,
403,3.0,4.034034034034034,-0.7785262050249097,,
404,3.0,4.044044044044044,-0.7566955320312521,,
405,3.0,4.054054054054054,-0.7504769394479905,,
406,3.0,4.064064064064064,-0.7236284137329798,,
407,3.0,4.074074074074074,-0.6780192430369136,,
408,3.0,4.084084084084084,-0.6341471012308265,,
409,3.0,4.094094094094094,-0.5776021394878086,,
410,3.0,4.104104104104104,-0.5204977737706203,,
411,3.0,4.114114114114114,-0.4481616575058334,,
412,3.0,4.124124124124124,-0.3719996089257008,,
413,3.0,4.134134134134134,-0.2898454201642467,,
414,3.0,4.144144144144144,-0.193325349596957,,
415,3.0,4.1541541541541545,-0.116827991812127,,
416,3.0,4.1641641641641645,-0.0242107366689716,,
417,3.0,4.174174174174175,0.0584252403707293,,
418,3.0,4.1841841841841845,0.1556732055145007,,
419,3.0,4.1941941941941945,0.2521782158362144,,
420,3.0,4.2042042042042045,0.3275725085712223,,
421,3.0,4.214214214214215,0.4016400038583437,,
422,3.0,4.2242242242242245,0.4793695461199523,,
423,3.0,4.2342342342342345,0.5502378191862005,,
424,3.0,4.2442442442442445,0.6098007998213044,,
425,3.0,4.254254254254255,0.6604899037509593,,
426,3.0,4.2642642642642645,0.7148144407627741,,
427,3.0,4.2742742742742745,0.7338827243963293,,
428,3.0,4.2842842842842845,0.7566381112448223,,
429,3.0,4.294294294294295,0.7703315521395541,,
430,3.0,4.3043043043043046,0.7731801963231459,,
431,3.0,4.314314314314315,0.7782412819324306,,
432,3.0,4.324324324324325,0.7713721959779875,,
433,3.0,4.334334334334335,0.7469371885211488,,
434,3.0,4.344344344344345,0.7146132306243463,,
435,3.0,4.354354354354355,0.6869497660978421,,
436,3.0,4.364364364364365,0.6481411117690803,,
437,3.0,4.374374374374375,0.6006017816702528,,
438,3.0,4.384384384384385,0.5527338288224347,,
439,3.0,4.394394394394395,0.5111130840565543,,
440,3.0,4.404404404404405,0.4526158567535425,,
441,3.0,4.414414414414415,0.4081893930243551,,
442,3.0,4.424424424424425,0.355673435414912,,
443,3.0,4.434434434434435,0.3081090920535926,,
444,3.0,4.444444444444445,0.2640496035796489,,
445,3.0,4.454454454454455,0.2136277973089018,,
446,3.0,4.464464464464465,0.17713617326528,,
447,3.0,4.474474474474475,0.1411942457461559,,
448,3.0,4.484484484484485,0.1041617011760728,,
449,3.0,4.494494494494495,0.0770162911704624,,
450,3.0,4.504504504504505,0.0566848018924577,,
451,3.0,4.514514514514515,0.0423133760824848,,
452,3.0,4.524524524524525,0.0311628619722124,,
453,3.0,4.534534534534535,0.0218777429201055,,
454,3.0,4.544544544544545,0.002569861541961,,
455,3.0,4.554554554554555,0.0069565232334639,,
456,3.0,4.564564564564565,-0.0024220470643436,,
457,3.0,4.574574574574575,0.0025275311307552,,
458,3.0,4.584584584584585,0.000675187132172,,
459,3.0,4.594594594594595,-0.0115716441323453,,
460,3.0,4.604604604604605,-0.0006908078512554,,
461,3.0,4.614614614614615,0.0003133014111997,,
462,3.0,4.624624624624625,-0.0078623638941831,,
463,3.0,4.634634634634635,-0.0141959967247148,,
464,3.0,4.644644644644645,-0.0226495638836224,,
465,3.0,4.654654654654655,-0.0488492532533409,,
466,3.0,4.664664664664665,-0.0585158277395756,,
467,3.0,4.674674674674675,-0.0867331760132018,,
468,3.0,4.684684684684685,-0.1102494005347063,,
469,3.0,4.694694694694695,-0.1555026952746095,,
470,3.0,4.704704704704705,-0.1904555377595705,,
471,3.0,4.714714714714715,-0.2349552589339633,,
472,3.0,4.724724724724725,-0.2803080480023369,,
473,3.0,4.734734734734735,-0.3203024321925022,,
474,3.0,4.744744744744745,-0.3652471165194069,,
475,3.0,4.754754754754755,-0.4242957129616557,,
476,3.0,4.764764764764765,-0.4665801539259756,,
477,3.0,4.774774774774775,-0.515118004157938,,
478,3.0,4.784784784784785,-0.5713568557954076,,
479,3.0,4.794794794794795,-0.612343354794779,,
480,3.0,4.804804804804805,-0.6475499838066157,,
481,3.0,4.814814814814815,-0.6991310680902195,,
482,3.0,4.824824824824825,-0.7235286108133608,,
483,3.0,4.834834834834835,-0.751356410421392,,
484,3.0,4.844844844844845,-0.7721275256268062,,
485,3.0,4.854854854854855,-0.7791452424887013,,
486,3.0,4.864864864864865,-0.7759964902897518,,
487,3.0,4.874874874874875,-0.7747658221741359,,
488,3.0,4.884884884884885,-0.7570681858113486,,
489,3.0,4.894894894894895,-0.7359898343391433,,
490,3.0,4.904904904904905,-0.6918707302876964,,
491,3.0,4.914914914914915,-0.6387776845455679,,
492,3.0,4.924924924924925,-0.5957836169014356,,
493,3.0,4.934934934934935,-0.5356706014842214,,
494,3.0,4.944944944944945,-0.4691536823114134,,
495,3.0,4.954954954954955,-0.3907974880750781,,
496,3.0,4.964964964964965,-0.3081635536126245,,
497,3.0,4.974974974974975,-0.226402879751435,,
498,3.0,4.984984984984985,-0.1328800259254131,,
499,3.0,4.994994994994995,-0.036044706830798,,
500,3.0,5.005005005005005,0.0455006857233781,,
501,3.0,5.015015015015015,0.1285848426665711,,
502,3.0,5.025025025025025,0.2185681450234862,,
503,3.0,5.035035035035035,0.300587858283965,,
504,3.0,5.045045045045045,0.3934980651659889,,
505,3.0,5.055055055055055,0.461417065493474,,
506,3.0,5.065065065065065,0.5378944809626708,,
507,3.0,5.075075075075075,0.59722395364632,,
508,3.0,5.085085085085085,0.6442041070794653,,
509,3.0,5.095095095095095,0.6926484564428689,,
510,3.0,5.105105105105105,0.7368174702665421,,
511,3.0,5.115115115115115,0.7523213050120081,,
512,3.0,5.125125125125125,0.7745514050610925,,
513,3.0,5.135135135135135,0.7721947301180435,,
514,3.0,5.145145145145145,0.7788405019261414,,
515,3.0,5.155155155155155,0.7635070369208001,,
516,3.0,5.165165165165165,0.7493512508683129,,
517,3.0,5.175175175175175,0.7210217953322514,,
518,3.0,5.185185185185185,0.6946010652718797,,
519,3.0,5.195195195195195,0.6562184655191035,,
520,3.0,5.205205205205205,0.6103737022882871,,
521,3.0,5.215215215215215,0.5689268500660731,,
522,3.0,5.225225225225225,0.5172897792753779,,
523,3.0,5.235235235235235,0.4628025068141754,,
524,3.0,5.245245245245245,0.4250585035032112,,
525,3.0,5.255255255255255,0.3669048366157145,,
526,3.0,5.265265265265265,0.3198499138406571,,
527,3.0,5.275275275275275,0.2704544712916004,,
528,3.0,5.285285285285285,0.2211559753758153,,
529,3.0,5.295295295295295,0.1818452365128173,,
530,3.0,5.305305305305305,0.1488100119566462,,
531,3.0,5.315315315315315,0.1087510300526196,,
532,3.0,5.325325325325325,0.0889757992011622,,
533,3.0,5.335335335335335,0.0705433650064314,,
534,3.0,5.345345345345345,0.0474094832453506,,
535,3.0,5.355355355355355,0.0292057755057048,,
536,3.0,5.365365365365365,0.0164281153480868,,
537,3.0,5.375375375375375,-0.0001789746437578,,
538,3.0,5.385385385385385,-0.0077299920124266,,
539,3.0,5.395395395395395,-0.0005932082818972,,
540,3.0,5.405405405405405,-0.00175778544432,,
541,3.0,5.415415415415415,-0.0013357529580779,,
542,3.0,5.425425425425425,-0.0030960572201093,,
543,3.0,5.435435435435435,-0.0038290585519555,,
544,3.0,5.445445445445445,-0.0021610165401221,,
545,3.0,5.455455455455455,-0.0136790628731685,,
546,3.0,5.465465465465465,-0.0179515492565131,,
547,3.0,5.475475475475475,-0.0231790118627558,,
548,3.0,5.485485485485485,-0.0438516195130411,,
549,3.0,5.495495495495495,-0.0616111807567634,,
550,3.0,5.505505505505505,-0.07118117059017,,
551,3.0,5.515515515515515,-0.1015534713340602,,
552,3.0,5.525525525525525,-0.1429131478466632,,
553,3.0,5.535535535535535,-0.1715307508631138,,
554,3.0,5.545545545545545,-0.2098886623585295,,
555,3.0,5.555555555555555,-0.2572794581445876,,
556,3.0,5.565565565565565,-0.3115751065579482,,
557,3.0,5.575575575575575,-0.3588539853750707,,
558,3.0,5.585585585585585,-0.4145765487576601,,
559,3.0,5.595595595595595,-0.4566662313392256,,
560,3.0,5.605605605605605,-0.4991952927844368,,
561,3.0,5.615615615615615,-0.5505429695224547,,
562,3.0,5.625625625625625,-0.6033075274571736,,
563,3.0,5.635635635635635,-0.6489491371212586,,
564,3.0,5.645645645645645,-0.6833224609065619,,
565,3.0,5.655655655655655,-0.708070052805995,,
566,3.0,5.665665665665665,-0.7523216477794956,,
567,3.0,5.675675675675675,-0.7650430115083225,,
568,3.0,5.685685685685685,-0.776387708768061,,
569,3.0,5.695695695695696,-0.7752139832486489,,
570,3.0,5.7057057057057055,-0.7731969643275808,,
571,3.0,5.715715715715716,-0.768277310509509,,
572,3.0,5.7257257257257255,-0.7383529579116463,,
573,3.0,5.735735735735736,-0.7060545465866964,,
574,3.0,5.7457457457457455,-0.6578484967427876,,
575,3.0,5.755755755755756,-0.6091970553829427,,
576,3.0,5.7657657657657655,-0.5569284603005282,,
577,3.0,5.775775775775776,-0.4773173612765748,,
578,3.0,5.7857857857857855,-0.4047964827061095,,
579,3.0,5.795795795795796,-0.324526385953499,,
580,3.0,5.8058058058058055,-0.2348764430782466,,
581,3.0,5.815815815815816,-0.1656475052880662,,
582,3.0,5.8258258258258255,-0.0740889657350978,,
583,3.0,5.835835835835836,0.0217608375237228,,
584,3.0,5.8458458458458455,0.106825458815736,,
585,3.0,5.855855855855856,0.2040428266098484,,
586,3.0,5.865865865865866,0.286535215742863,,
587,3.0,5.875875875875876,0.3679744913015771,,
588,3.0,5.885885885885886,0.4426082014138248,,
589,3.0,5.895895895895896,0.5223403197497127,,
590,3.0,5.905905905905906,0.5774056864338454,,
591,3.0,5.915915915915916,0.6366283256555764,,
592,3.0,5.925925925925926,0.6866954752997528,,
593,3.0,5.935935935935936,0.728876016541466,,
594,3.0,5.945945945945946,0.7486593098407436,,
595,3.0,5.955955955955956,0.7705718746814728,,
596,3.0,5.965965965965966,0.773833189527165,,
597,3.0,5.975975975975976,0.7887262530844503,,
598,3.0,5.985985985985986,0.7732193246261301,,
599,3.0,5.995995995995996,0.7555808321977898,,
600,3.0,6.006006006006006,0.7396023810587711,,
601,3.0,6.016016016016016,0.7029121692507296,,
602,3.0,6.026026026026026,0.6654303877195905,,
603,3.0,6.036036036036036,0.6327433360037031,,
604,3.0,6.046046046046046,0.5905702105900001,,
605,3.0,6.056056056056056,0.5349373626307208,,
606,3.0,6.066066066066066,0.4902952994229519,,
607,3.0,6.076076076076076,0.4340701625355907,,
608,3.0,6.086086086086086,0.3787454041603433,,
609,3.0,6.096096096096096,0.331808360041648,,
610,3.0,6.106106106106106,0.2772457352528287,,
611,3.0,6.116116116116116,0.2387934267719698,,
612,3.0,6.126126126126126,0.1944558684697329,,
613,3.0,6.136136136136136,0.1522129620484881,,
614,3.0,6.146146146146146,0.1203830328837052,,
615,3.0,6.156156156156156,0.0889346221707958,,
616,3.0,6.166166166166166,0.0714860057633794,,
617,3.0,6.176176176176176,0.0426863339591501,,
618,3.0,6.186186186186186,0.0232263047165372,,
619,3.0,6.196196196196196,0.0244703467081864,,
620,3.0,6.206206206206206,0.0115351581114959,,
621,3.0,6.216216216216216,0.0037832944444068,,
622,3.0,6.226226226226226,-0.004669855364599,,
623,3.0,6.236236236236236,0.0090619782227764,,
624,3.0,6.246246246246246,0.0034793408936779,,
625,3.0,6.256256256256256,-0.0061580184605691,,
626,3.0,6.266266266266266,-0.0008418202324276,,
627,3.0,6.276276276276276,-0.0032975884461713,,
628,3.0,6.286286286286286,-0.0089744066872539,,
629,3.0,6.296296296296296,-0.008658758024516,,
630,3.0,6.306306306306306,-0.0232691707535715,,
631,3.0,6.316316316316316,-0.0397538256118537,,
632,3.0,6.326326326326326,-0.0638000147061437,,
633,3.0,6.336336336336336,-0.0903239836709533,,
634,3.0,6.346346346346346,-0.0987934185555761,,
635,3.0,6.356356356356356,-0.1421266771909459,,
636,3.0,6.366366366366366,-0.1620172767229987,,
637,3.0,6.376376376376376,-0.2018952721362457,,
638,3.0,6.386386386386386,-0.2544199927831365,,
639,3.0,6.396396396396396,-0.2960475678495338,,
640,3.0,6.406406406406406,-0.338720921603156,,
641,3.0,6.416416416416417,-0.4010392613307471,,
642,3.0,6.426426426426427,-0.4419658760986542,,
643,3.0,6.436436436436437,-0.4959275510817644,,
644,3.0,6.446446446446447,-0.5403184841838355,,
645,3.0,6.456456456456457,-0.5902940690989198,,
646,3.0,6.466466466466467,-0.63168835846712,,
647,3.0,6.476476476476477,-0.6723910955123842,,
648,3.0,6.486486486486487,-0.7095450633546646,,
649,3.0,6.496496496496497,-0.7315189461333715,,
650,3.0,6.506506506506507,-0.7615841771761843,,
651,3.0,6.516516516516517,-0.7748078301069341,,
652,3.0,6.526526526526527,-0.773401393925653,,
653,3.0,6.536536536536537,-0.778912786787791,,
654,3.0,6.546546546546547,-0.7640708466691971,,
655,3.0,6.556556556556557,-0.7420748447006853,,
656,3.0,6.566566566566567,-0.7096126637159361,,
657,3.0,6.576576576576577,-0.6795634972265568,,
658,3.0,6.586586586586587,-0.6218520169553947,,
659,3.0,6.596596596596597,-0.5566186852366677,,
660,3.0,6.606606606606607,-0.4920195407035998,,
661,3.0,6.616616616616617,-0.4190120956267661,,
662,3.0,6.626626626626627,-0.3522209105922358,,
663,3.0,6.636636636636637,-0.2611294753457456,,
664,3.0,6.646646646646647,-0.1792092602049217,,
665,3.0,6.656656656656657,-0.0955970078078903,,
666,3.0,6.666666666666667,-0.0100289785072212,,
667,3.0,6.676676676676677,0.0834217658079482,,
668,3.0,6.686686686686687,0.1818437528177495,,
669,3.0,6.696696696696697,0.2742743763665762,,
670,3.0,6.706706706706707,0.3540383393661148,,
671,3.0,6.716716716716717,0.4308617762933258,,
672,3.0,6.726726726726727,0.496428858718619,,
673,3.0,6.736736736736737,0.5703938737430688,,
674,3.0,6.746746746746747,0.6255670918447923,,
675,3.0,6.756756756756757,0.6642759325426326,,
676,3.0,6.766766766766767,0.7139474927538834,,
677,3.0,6.776776776776777,0.7456869261285598,,
678,3.0,6.786786786786787,0.7695260846086012,,
679,3.0,6.796796796796797,0.7723093465894993,,
680,3.0,6.806806806806807,0.7818559766713222,,
681,3.0,6.816816816816817,0.7740080009367198,,
682,3.0,6.826826826826827,0.7583800908149961,,
683,3.0,6.836836836836837,0.7358759502024075,,
684,3.0,6.846846846846847,0.7177054077728621,,
685,3.0,6.856856856856857,0.6716968900816092,,
686,3.0,6.866866866866867,0.6354438446654924,,
687,3.0,6.876876876876877,0.5945034866664224,,
688,3.0,6.886886886886887,0.5476484482038079,,
689,3.0,6.896896896896897,0.4924277464132914,,
690,3.0,6.906906906906907,0.4431838531681782,,
691,3.0,6.916916916916917,0.3912378347631259,,
692,3.0,6.926926926926927,0.345835045934215,,
693,3.0,6.936936936936937,0.2932814854535261,,
694,3.0,6.946946946946947,0.2506424831983794,,
695,3.0,6.956956956956957,0.2076071900804645,,
696,3.0,6.966966966966967,0.1767486317580995,,
697,3.0,6.976976976976977,0.1323375429848976,,
698,3.0,6.986986986986987,0.0986306020461198,,
699,3.0,6.996996996996997,0.082123485283356,,
700,3.0,7.007007007007007,0.0516024244223692,,
701,3.0,7.017017017017017,0.0379964839680463,,
702,3.0,7.027027027027027,0.0306601569929286,,
703,3.0,7.037037037037037,0.0105954238902397,,
704,3.0,7.047047047047047,0.0137308444022287,,
705,3.0,7.057057057057057,-0.0065253959110487,,
706,3.0,7.067067067067067,-0.0076716641182987,,
707,3.0,7.077077077077077,-0.0016926759441265,,
708,3.0,7.087087087087087,0.0006473171207265,,
709,3.0,7.097097097097097,-0.0001873146267559,,
710,3.0,7.107107107107107,-0.0028253671057083,,
711,3.0,7.117117117117117,-0.0105089874451739,,
712,3.0,7.127127127127127,-0.0137935417543212,,
713,3.0,7.137137137137137,-0.0165660010384377,,
714,3.0,7.147147147147147,-0.0337953278736125,,
715,3.0,7.157157157157157,-0.0410416192655307,,
716,3.0,7.167167167167167,-0.0684253053137937,,
717,3.0,7.177177177177177,-0.08972140807906,,
718,3.0,7.187187187187187,-0.120234312554047,,
719,3.0,7.197197197197197,-0.1560740993295805,,
720,3.0,7.207207207207207,-0.1883391216189933,,
721,3.0,7.217217217217217,-0.2406680784465136,,
722,3.0,7.227227227227227,-0.2821117378492779,,
723,3.0,7.237237237237237,-0.3236676980525795,,
724,3.0,7.247247247247247,-0.3849160553221148,,
725,3.0,7.257257257257257,-0.429859755619878,,
726,3.0,7.267267267267267,-0.4872946892512075,,
727,3.0,7.277277277277277,-0.5346955092110145,,
728,3.0,7.287287287287287,-0.5728213587579165,,
729,3.0,7.297297297297297,-0.6213981177977641,,
730,3.0,7.307307307307307,-0.6668179592559087,,
731,3.0,7.317317317317317,-0.7056134002847073,,
732,3.0,7.327327327327327,-0.7416778001871294,,
733,3.0,7.337337337337337,-0.7580245188396273,,
734,3.0,7.347347347347347,-0.7802031717293528,,
735,3.0,7.357357357357357,-0.7821438910483856,,
736,3.0,7.367367367367367,-0.7791065599772504,,
737,3.0,7.377377377377377,-0.762839936002541,,
738,3.0,7.387387387387387,-0.7469254135386888,,
739,3.0,7.397397397397397,-0.7158548775317316,,
740,3.0,7.407407407407407,-0.6843122908696438,,
741,3.0,7.4174174174174174,-0.630505492066974,,
742,3.0,7.4274274274274275,-0.5825651648467716,,
743,3.0,7.437437437437437,-0.5141869306510031,,
744,3.0,7.447447447447447,-0.4457651878573692,,
745,3.0,7.4574574574574575,-0.3666796975020994,,
746,3.0,7.4674674674674675,-0.2924712754335407,,
747,3.0,7.477477477477477,-0.1977683883366246,,
748,3.0,7.487487487487487,-0.1151844736959846,,
749,3.0,7.4974974974974975,-0.0200076696201287,,
750,3.0,7.5075075075075075,0.064733106739319,,
751,3.0,7.517517517517517,0.1501709744214098,,
752,3.0,7.527527527527527,0.237704663248556,,
753,3.0,7.5375375375375375,0.326793413303229,,
754,3.0,7.5475475475475475,0.4169604410406101,,
755,3.0,7.557557557557557,0.4803480638766466,,
756,3.0,7.567567567567567,0.5497516885047016,,
757,3.0,7.5775775775775776,0.620278110080804,,
758,3.0,7.587587587587588,0.662493751029051,,
759,3.0,7.597597597597598,0.7009156545063511,,
760,3.0,7.607607607607608,0.7393482151992465,,
761,3.0,7.617617617617618,0.7631416150871713,,
762,3.0,7.627627627627628,0.7748191969304336,,
763,3.0,7.637637637637638,0.780105676407685,,
764,3.0,7.647647647647648,0.7760260435386461,,
765,3.0,7.657657657657658,0.763585234442944,,
766,3.0,7.667667667667668,0.7467851904319556,,
767,3.0,7.677677677677678,0.7149360795818275,,
768,3.0,7.687687687687688,0.6820993687487998,,
769,3.0,7.697697697697698,0.6430319556572324,,
770,3.0,7.707707707707708,0.6014292462088285,,
771,3.0,7.717717717717718,0.5624809943618521,,
772,3.0,7.727727727727728,0.5104868800239354,,
773,3.0,7.737737737737738,0.449435124786096,,
774,3.0,7.747747747747748,0.3997844452534285,,
775,3.0,7.757757757757758,0.3510016459797452,,
776,3.0,7.767767767767768,0.2974565372203346,,
777,3.0,7.777777777777778,0.2648579732225217,,
778,3.0,7.787787787787788,0.214747643513616,,
779,3.0,7.797797797797798,0.1750856944026403,,
780,3.0,7.807807807807808,0.1411142327029178,,
781,3.0,7.817817817817818,0.115403552327082,,
782,3.0,7.827827827827828,0.0817793407222482,,
783,3.0,7.837837837837838,0.0508535201613391,,
784,3.0,7.847847847847848,0.0462634542265301,,
785,3.0,7.857857857857858,0.0207938870999162,,
786,3.0,7.867867867867868,0.0155107221910314,,
787,3.0,7.877877877877878,0.0032705569850408,,
788,3.0,7.887887887887888,0.0018231766068335,,
789,3.0,7.897897897897898,0.0030541741496038,,
790,3.0,7.907907907907908,0.0044452455131165,,
791,3.0,7.917917917917918,-0.0047997274545568,,
792,3.0,7.927927927927928,-0.002417065699077,,
793,3.0,7.937937937937938,0.0042763548400404,,
794,3.0,7.947947947947948,-0.0015201295816112,,
795,3.0,7.957957957957958,-0.0096219222331481,,
796,3.0,7.967967967967968,-0.0103956338520669,,
797,3.0,7.977977977977978,-0.0349733771876542,,
798,3.0,7.987987987987988,-0.0422089799500792,,
799,3.0,7.997997997997998,-0.0606681561298305,,
800,3.0,8.008008008008009,-0.0887108349731715,,
801,3.0,8.018018018018019,-0.1239300928500496,,
802,3.0,8.028028028028029,-0.1598235326501292,,
803,3.0,8.038038038038039,-0.1865223873527539,,
804,3.0,8.048048048048049,-0.2244645779122675,,
805,3.0,8.058058058058059,-0.2825188221813389,,
806,3.0,8.068068068068069,-0.3183984870789147,,
807,3.0,8.078078078078079,-0.3692418248001991,,
808,3.0,8.088088088088089,-0.4202866037533294,,
809,3.0,8.098098098098099,-0.4668384444274774,,
810,3.0,8.108108108108109,-0.5198962114920697,,
811,3.0,8.118118118118119,-0.5691495932852252,,
812,3.0,8.128128128128129,-0.6240229595470607,,
813,3.0,8.138138138138139,-0.6556313225299961,,
814,3.0,8.148148148148149,-0.69490753245785,,
815,3.0,8.158158158158159,-0.7262206249682973,,
816,3.0,8.168168168168169,-0.7495948608057897,,
817,3.0,8.178178178178179,-0.771808658532681,,
818,3.0,8.188188188188189,-0.7802357214081312,,
819,3.0,8.198198198198199,-0.7891216957749418,,
820,3.0,8.208208208208209,-0.7692712982215102,,
821,3.0,8.218218218218219,-0.7571129172135855,,
822,3.0,8.228228228228229,-0.7274649246968764,,
823,3.0,8.238238238238239,-0.6947683856438218,,
824,3.0,8.248248248248249,-0.6339460375987416,,
825,3.0,8.258258258258259,-0.5946967246670319,,
826,3.0,8.268268268268269,-0.5348566472902203,,
827,3.0,8.278278278278279,-0.4612501883381115,,
828,3.0,8.288288288288289,-0.3903461244113516,,
829,3.0,8.298298298298299,-0.305914678733893,,
830,3.0,8.308308308308309,-0.2273963652936404,,
831,3.0,8.318318318318319,-0.1224594271373354,,
832,3.0,8.328328328328329,-0.0458654546064554,,
833,3.0,8.338338338338339,0.0508768282685436,,
834,3.0,8.348348348348349,0.13772862504785,,
835,3.0,8.358358358358359,0.2124813518052188,,
836,3.0,8.368368368368369,0.3095337349480578,,
837,3.0,8.378378378378379,0.3928502353422831,,
838,3.0,8.388388388388389,0.4618564362844145,,
839,3.0,8.398398398398399,0.5342986701344349,,
840,3.0,8.408408408408409,0.5980311961319751,,
841,3.0,8.418418418418419,0.6406006334566304,,
842,3.0,8.428428428428429,0.6821760097285853,,
843,3.0,8.438438438438439,0.7303742871977421,,
844,3.0,8.448448448448449,0.7544031047290606,,
845,3.0,8.458458458458459,0.772449778092687,,
846,3.0,8.468468468468469,0.7762939715741631,,
847,3.0,8.478478478478479,0.7848860993176477,,
848,3.0,8.488488488488489,0.7706194501732195,,
849,3.0,8.498498498498499,0.7511371281258368,,
850,3.0,8.508508508508509,0.7234865028537172,,
851,3.0,8.518518518518519,0.7011407022605136,,
852,3.0,8.528528528528529,0.6609224276793497,,
853,3.0,8.538538538538539,0.6096829387538467,,
854,3.0,8.548548548548549,0.5751020843150733,,
855,3.0,8.558558558558559,0.5220639423176262,,
856,3.0,8.568568568568569,0.4748681201114727,,
857,3.0,8.578578578578579,0.411195477142233,,
858,3.0,8.588588588588589,0.3671668080241884,,
859,3.0,8.598598598598599,0.3229885315295583,,
860,3.0,8.608608608608609,0.2668121867506118,,
861,3.0,8.618618618618619,0.2323271199080533,,
862,3.0,8.62862862862863,0.1839018597761245,,
863,3.0,8.63863863863864,0.1454748261991497,,
864,3.0,8.64864864864865,0.1150931227748355,,
865,3.0,8.65865865865866,0.0805333160363914,,
866,3.0,8.66866866866867,0.0573971552969018,,
867,3.0,8.67867867867868,0.0446562805574783,,
868,3.0,8.68868868868869,0.0275543374742994,,
869,3.0,8.6986986986987,0.0214578783201235,,
870,3.0,8.70870870870871,0.0092826242874882,,
871,3.0,8.71871871871872,-0.0003194323653013,,
872,3.0,8.72872872872873,-0.0043938110152817,,
873,3.0,8.73873873873874,-0.0006526230391063,,
874,3.0,8.74874874874875,-0.0045487122940559,,
875,3.0,8.75875875875876,-0.0046891298232273,,
876,3.0,8.76876876876877,-0.0016652128043557,,
877,3.0,8.77877877877878,-0.0003898694030198,,
878,3.0,8.78878878878879,-0.0162706205080038,,
879,3.0,8.7987987987988,-0.0214329527272821,,
880,3.0,8.80880880880881,-0.0284606227065784,,
881,3.0,8.81881881881882,-0.034663430280919,,
882,3.0,8.82882882882883,-0.0560742993797746,,
883,3.0,8.83883883883884,-0.0749744586012351,,
884,3.0,8.84884884884885,-0.1127506617792799,,
885,3.0,8.85885885885886,-0.1465803731148597,,
886,3.0,8.86886886886887,-0.1799756688990431,,
887,3.0,8.87887887887888,-0.2219832430417518,,
888,3.0,8.88888888888889,-0.26333683122364,,
889,3.0,8.8988988988989,-0.3055770564512889,,
890,3.0,8.90890890890891,-0.3589099698411131,,
891,3.0,8.91891891891892,-0.4062643290078008,,
892,3.0,8.92892892892893,-0.4672534770972055,,
893,3.0,8.93893893893894,-0.5080205171640131,,
894,3.0,8.94894894894895,-0.5585599252138288,,
895,3.0,8.95895895895896,-0.5995124986500354,,
896,3.0,8.96896896896897,-0.6326429411495845,,
897,3.0,8.97897897897898,-0.6930382526177417,,
898,3.0,8.98898898898899,-0.7171021784995621,,
899,3.0,8.998998998999,-0.7333535481591819,,
900,3.0,9.00900900900901,-0.7564069228127506,,
901,3.0,9.01901901901902,-0.7764411307617082,,
902,3.0,9.02902902902903,-0.7826036831015095,,
903,3.0,9.03903903903904,-0.7768033110062617,,
904,3.0,9.04904904904905,-0.7615741541736504,,
905,3.0,9.05905905905906,-0.7345848442269409,,
906,3.0,9.06906906906907,-0.7019762730623855,,
907,3.0,9.07907907907908,-0.654292552813659,,
908,3.0,9.08908908908909,-0.6089275719181767,,
909,3.0,9.0990990990991,-0.5528668761267712,,
910,3.0,9.10910910910911,-0.4795396688933125,,
911,3.0,9.11911911911912,-0.4087590465845486,,
912,3.0,9.12912912912913,-0.3382728687089111,,
913,3.0,9.13913913913914,-0.2393560151533459,,
914,3.0,9.14914914914915,-0.1636610058179792,,
915,3.0,9.15915915915916,-0.0659136975927787,,
916,3.0,9.16916916916917,0.0082301065522114,,
917,3.0,9.17917917917918,0.1116095249823916,,
918,3.0,9.18918918918919,0.1999432225673788,,
919,3.0,9.1991991991992,0.2872480275327798,,
920,3.0,9.20920920920921,0.3729990497619024,,
921,3.0,9.21921921921922,0.4419035092395563,,
922,3.0,9.22922922922923,0.5051962708354123,,
923,3.0,9.23923923923924,0.5769509788615912,,
924,3.0,9.24924924924925,0.6363357645958779,,
925,3.0,9.25925925925926,0.6845981895886983,,
926,3.0,9.26926926926927,0.7195840872277296,,
927,3.0,9.27927927927928,0.7546885077863558,,
928,3.0,9.28928928928929,0.7682326726119534,,
929,3.0,9.2992992992993,0.7668920227847019,,
930,3.0,9.30930930930931,0.7781614622815163,,
931,3.0,9.31931931931932,0.7697333377009035,,
932,3.0,9.32932932932933,0.7578224761550458,,
933,3.0,9.33933933933934,0.7301205917972664,,
934,3.0,9.34934934934935,0.699564780297361,,
935,3.0,9.35935935935936,0.6578165467470433,,
936,3.0,9.36936936936937,0.6236704606016619,,
937,3.0,9.37937937937938,0.5772651156073517,,
938,3.0,9.38938938938939,0.5357838121642234,,
939,3.0,9.3993993993994,0.4864131275929568,,
940,3.0,9.40940940940941,0.432667996352827,,
941,3.0,9.41941941941942,0.3834017215042681,,
942,3.0,9.42942942942943,0.3267836008283003,,
943,3.0,9.43943943943944,0.2811373817231771,,
944,3.0,9.44944944944945,0.2423512547323609,,
945,3.0,9.45945945945946,0.1974128449189493,,
946,3.0,9.46946946946947,0.1624336540330436,,
947,3.0,9.47947947947948,0.1282355970469579,,
948,3.0,9.48948948948949,0.1047986733495626,,
949,3.0,9.4994994994995,0.0615778541840997,,
950,3.0,9.50950950950951,0.0468584466996914,,
951,3.0,9.51951951951952,0.0300579475502041,,
952,3.0,9.52952952952953,0.0241246179561888,,
953,3.0,9.53953953953954,-0.0010288979197477,,
954,3.0,9.54954954954955,0.0074961668831685,,
955,3.0,9.55955955955956,7.750474675261845e-05,,
956,3.0,9.56956956956957,-0.0036341280147827,,
957,3.0,9.57957957957958,-0.0006327315044983,,
958,3.0,9.58958958958959,0.0072345195770992,,
959,3.0,9.5995995995996,-0.0019857381882656,,
960,3.0,9.60960960960961,-0.0029931036747255,,
961,3.0,9.61961961961962,-0.0031973433356988,,
962,3.0,9.62962962962963,-0.0030603383094916,,
963,3.0,9.63963963963964,-0.0205604397491656,,
964,3.0,9.64964964964965,-0.0291840447734562,,
965,3.0,9.65965965965966,-0.0488547770169082,,
966,3.0,9.66966966966967,-0.0743001962586113,,
967,3.0,9.67967967967968,-0.1041653163009166,,
968,3.0,9.68968968968969,-0.1399719804169226,,
969,3.0,9.6996996996997,-0.1655803764088551,,
970,3.0,9.70970970970971,-0.2052535329106274,,
971,3.0,9.71971971971972,-0.244298903779711,,
972,3.0,9.72972972972973,-0.2976419949877574,,
973,3.0,9.73973973973974,-0.3427496422259409,,
974,3.0,9.74974974974975,-0.4014271421034588,,
975,3.0,9.75975975975976,-0.4437556731548743,,
976,3.0,9.76976976976977,-0.496452836661497,,
977,3.0,9.77977977977978,-0.5475694094108488,,
978,3.0,9.78978978978979,-0.5883930128047116,,
979,3.0,9.7997997997998,-0.6401834641184453,,
980,3.0,9.80980980980981,-0.674519043594243,,
981,3.0,9.81981981981982,-0.7095340406254691,,
982,3.0,9.82982982982983,-0.7382229517274832,,
983,3.0,9.83983983983984,-0.7641743215637441,,
984,3.0,9.84984984984985,-0.7692967036602589,,
985,3.0,9.85985985985986,-0.7693530155288526,,
986,3.0,9.86986986986987,-0.7763427461644586,,
987,3.0,9.87987987987988,-0.7656699858065185,,
988,3.0,9.88988988988989,-0.746202793490838,,
989,3.0,9.8998998998999,-0.7052096510819795,,
990,3.0,9.90990990990991,-0.6749430478589575,,
991,3.0,9.91991991991992,-0.6278697087866973,,
992,3.0,9.92992992992993,-0.5567369470119508,,
993,3.0,9.93993993993994,-0.4996934512486222,,
994,3.0,9.94994994994995,-0.425327181762505,,
995,3.0,9.95995995995996,-0.3458929951722769,,
996,3.0,9.96996996996997,-0.2594613306581453,,
997,3.0,9.97997997997998,-0.1734783680490541,,
998,3.0,9.98998998998999,-0.0887669729223772,,
999,3.0,10.0,-0.0032797624470904,,
0,,,,71.0,37.98588026
1,,,,87.0,63.99203399
2,,,,65.0,87.45502852
3,,,,76.0,59.90844847
4,,,,93.0,60.70464529
5,,,,75.0,31.85818104
6,,,,98.0,27.55325512
7,,,,68.0,88.21327519
8,,,,86.0,46.05414594
9,,,,61.0,90.14936228
10,,,,79.0,40.73856427
11,,,,91.0,63.75629742
12,,,,86.0,76.43595811
13,,,,65.0,88.12241627
14,,,,90.0,59.40902284
15,,,,80.0,90.7207735
16,,,,86.0,20.09507654
17,,,,92.0,37.07977298
18,,,,66.0,97.32098137
19,,,,67.0,99.56933584
