,Subject_ID,Time,PPG,HR,HRV
0,2.0,0.0,0.0049287944413349,,
1,2.0,0.01001001001001,0.093537370471349,,
2,2.0,0.02002002002002,0.1763621843965019,,
3,2.0,0.03003003003003,0.26623033333451,,
4,2.0,0.04004004004004,0.3435413610142196,,
5,2.0,0.05005005005005,0.4321712480027207,,
6,2.0,0.06006006006006,0.4998604904402431,,
7,2.0,0.07007007007007,0.559559682918378,,
8,2.0,0.08008008008008,0.6248052816983725,,
9,2.0,0.09009009009009,0.6705678139405699,,
10,2.0,0.1001001001001,0.7118261393084807,,
11,2.0,0.1101101101101101,0.7498681606974935,,
12,2.0,0.1201201201201201,0.7642050454052636,,
13,2.0,0.1301301301301301,0.7779224422500458,,
14,2.0,0.1401401401401401,0.7711798101281229,,
15,2.0,0.1501501501501501,0.775448383377242,,
16,2.0,0.1601601601601601,0.7616440426559391,,
17,2.0,0.1701701701701701,0.7387725628968355,,
18,2.0,0.1801801801801801,0.7050048872504634,,
19,2.0,0.1901901901901901,0.6786170603155488,,
20,2.0,0.2002002002002001,0.6441107642249572,,
21,2.0,0.2102102102102102,0.5828234124829225,,
22,2.0,0.2202202202202202,0.5469205195656639,,
23,2.0,0.2302302302302302,0.4972988139866166,,
24,2.0,0.2402402402402402,0.4497881422341414,,
25,2.0,0.2502502502502503,0.3966706136509014,,
26,2.0,0.2602602602602603,0.3429627715216176,,
27,2.0,0.2702702702702703,0.2975970509351838,,
28,2.0,0.2802802802802803,0.2558889105149599,,
29,2.0,0.2902902902902903,0.2141237496815522,,
30,2.0,0.3003003003003003,0.1709257859252301,,
31,2.0,0.3103103103103103,0.1335085199591422,,
32,2.0,0.3203203203203203,0.1020852489369556,,
33,2.0,0.3303303303303303,0.0707107896629761,,
34,2.0,0.3403403403403403,0.0483711366370049,,
35,2.0,0.3503503503503503,0.0425259965569541,,
36,2.0,0.3603603603603603,0.0204760270365988,,
37,2.0,0.3703703703703703,0.0187425205857591,,
38,2.0,0.3803803803803803,0.0031850733460725,,
39,2.0,0.3903903903903903,0.0007851314943741,,
40,2.0,0.4004004004004003,-0.0040703921292392,,
41,2.0,0.4104104104104104,0.0039372666810348,,
42,2.0,0.4204204204204204,-1.83836719883356e-05,,
43,2.0,0.4304304304304304,-0.0010567633200739,,
44,2.0,0.4404404404404404,0.0023635419485541,,
45,2.0,0.4504504504504504,-0.0025028817769028,,
46,2.0,0.4604604604604604,-0.0095352887859001,,
47,2.0,0.4704704704704704,-0.02015969992346,,
48,2.0,0.4804804804804805,-0.029920069177675,,
49,2.0,0.4904904904904905,-0.0501280636749559,,
50,2.0,0.5005005005005005,-0.0668797544884001,,
51,2.0,0.5105105105105106,-0.0913379627296449,,
52,2.0,0.5205205205205206,-0.1299045136212089,,
53,2.0,0.5305305305305306,-0.1534044130972184,,
54,2.0,0.5405405405405406,-0.1927953823929611,,
55,2.0,0.5505505505505506,-0.2467097131679632,,
56,2.0,0.5605605605605606,-0.28317441155242,,
57,2.0,0.5705705705705706,-0.3243739559812146,,
58,2.0,0.5805805805805806,-0.3786977443843718,,
59,2.0,0.5905905905905906,-0.428138939115828,,
60,2.0,0.6006006006006006,-0.4847129688597587,,
61,2.0,0.6106106106106106,-0.5299262591527626,,
62,2.0,0.6206206206206206,-0.5770966004364013,,
63,2.0,0.6306306306306306,-0.6240424220152626,,
64,2.0,0.6406406406406406,-0.6632365270896148,,
65,2.0,0.6506506506506506,-0.6966404142983055,,
66,2.0,0.6606606606606606,-0.7284715411976064,,
67,2.0,0.6706706706706707,-0.7521499930022378,,
68,2.0,0.6806806806806807,-0.767522873408324,,
69,2.0,0.6906906906906907,-0.7771527352108187,,
70,2.0,0.7007007007007007,-0.7798453160152599,,
71,2.0,0.7107107107107107,-0.7621412674853049,,
72,2.0,0.7207207207207207,-0.7491533428793513,,
73,2.0,0.7307307307307307,-0.7231858964183157,,
74,2.0,0.7407407407407407,-0.6820844903977158,,
75,2.0,0.7507507507507507,-0.6291352491769034,,
76,2.0,0.7607607607607607,-0.5788894192810707,,
77,2.0,0.7707707707707707,-0.5043506020514383,,
78,2.0,0.7807807807807807,-0.4395676262503248,,
79,2.0,0.7907907907907907,-0.3641687142694808,,
80,2.0,0.8008008008008007,-0.2848183905826701,,
81,2.0,0.8108108108108109,-0.1988312610298469,,
82,2.0,0.8208208208208209,-0.1190613390375842,,
83,2.0,0.8308308308308309,-0.0193083024722199,,
84,2.0,0.8408408408408409,0.0718708090759246,,
85,2.0,0.8508508508508509,0.1581997384300121,,
86,2.0,0.8608608608608609,0.2502771153011501,,
87,2.0,0.8708708708708709,0.3302419810013533,,
88,2.0,0.8808808808808809,0.4110003773455462,,
89,2.0,0.8908908908908909,0.480209358789387,,
90,2.0,0.9009009009009008,0.5578467868691765,,
91,2.0,0.9109109109109108,0.6034703414919429,,
92,2.0,0.9209209209209208,0.6589206225217042,,
93,2.0,0.9309309309309308,0.69481069753866,,
94,2.0,0.9409409409409408,0.7379508933579646,,
95,2.0,0.950950950950951,0.7690668431070147,,
96,2.0,0.960960960960961,0.7742736127287826,,
97,2.0,0.970970970970971,0.7798071273016971,,
98,2.0,0.980980980980981,0.7837208789292449,,
99,2.0,0.990990990990991,0.7643765690225324,,
100,2.0,1.001001001001001,0.7492612322921414,,
101,2.0,1.011011011011011,0.7197802990189145,,
102,2.0,1.021021021021021,0.6850549106010253,,
103,2.0,1.031031031031031,0.6434388574430363,,
104,2.0,1.0410410410410411,0.6102003898860212,,
105,2.0,1.0510510510510511,0.5583485969904481,,
106,2.0,1.0610610610610611,0.5044917020598524,,
107,2.0,1.0710710710710711,0.4476003316452961,,
108,2.0,1.0810810810810811,0.4089874691089294,,
109,2.0,1.0910910910910911,0.3478199362183194,,
110,2.0,1.1011011011011012,0.3089343277513433,,
111,2.0,1.1111111111111112,0.2614234182551448,,
112,2.0,1.1211211211211212,0.2135376045101508,,
113,2.0,1.1311311311311312,0.1750941501428222,,
114,2.0,1.1411411411411412,0.1421138325821382,,
115,2.0,1.1511511511511512,0.1091934979489526,,
116,2.0,1.1611611611611612,0.076835232898443,,
117,2.0,1.1711711711711712,0.0543534482620779,,
118,2.0,1.1811811811811812,0.0449480770804364,,
119,2.0,1.1911911911911912,0.0263171439812749,,
120,2.0,1.2012012012012012,0.0134633329284073,,
121,2.0,1.2112112112112112,0.0131573010808232,,
122,2.0,1.2212212212212212,0.0032841062791383,,
123,2.0,1.2312312312312312,-0.0066950747987647,,
124,2.0,1.2412412412412412,-0.0014211669614961,,
125,2.0,1.2512512512512513,0.0043137165904805,,
126,2.0,1.2612612612612613,0.0074499585268148,,
127,2.0,1.2712712712712713,-0.000650297794049,,
128,2.0,1.2812812812812813,-0.0060669107285234,,
129,2.0,1.2912912912912913,-0.0082559275685509,,
130,2.0,1.3013013013013013,-0.0200661887880175,,
131,2.0,1.3113113113113113,-0.0284509295161838,,
132,2.0,1.3213213213213213,-0.0377776620040681,,
133,2.0,1.3313313313313313,-0.0571102190671001,,
134,2.0,1.3413413413413413,-0.0810480577203187,,
135,2.0,1.351351351351351,-0.1132882776261847,,
136,2.0,1.361361361361361,-0.146881862049975,,
137,2.0,1.371371371371371,-0.1853236980195283,,
138,2.0,1.3813813813813811,-0.2234970215479289,,
139,2.0,1.3913913913913911,-0.275023043064144,,
140,2.0,1.4014014014014011,-0.3127669771696821,,
141,2.0,1.4114114114114114,-0.3599931564593197,,
142,2.0,1.4214214214214214,-0.4277291206617674,,
143,2.0,1.4314314314314314,-0.4680490557199658,,
144,2.0,1.4414414414414414,-0.5154213474658181,,
145,2.0,1.4514514514514514,-0.5700978123693687,,
146,2.0,1.4614614614614614,-0.6100989179221685,,
147,2.0,1.4714714714714714,-0.6568603751121643,,
148,2.0,1.4814814814814814,-0.696427981656215,,
149,2.0,1.4914914914914914,-0.722301418804031,,
150,2.0,1.5015015015015014,-0.7500204754208701,,
151,2.0,1.5115115115115114,-0.768554799881835,,
152,2.0,1.5215215215215214,-0.7730249636914657,,
153,2.0,1.5315315315315314,-0.7761926031480175,,
154,2.0,1.5415415415415414,-0.7668347494163783,,
155,2.0,1.5515515515515514,-0.7644461216258025,,
156,2.0,1.5615615615615617,-0.7360647507405973,,
157,2.0,1.5715715715715717,-0.6927380395355947,,
158,2.0,1.5815815815815817,-0.6412513531966236,,
159,2.0,1.5915915915915917,-0.5865283592173903,,
160,2.0,1.6016016016016017,-0.5375245870865492,,
161,2.0,1.6116116116116117,-0.4665671081246607,,
162,2.0,1.6216216216216215,-0.3876110287132435,,
163,2.0,1.6316316316316315,-0.3000335198574276,,
164,2.0,1.6416416416416415,-0.2237098308888962,,
165,2.0,1.6516516516516515,-0.1321791171386197,,
166,2.0,1.6616616616616615,-0.0461076898401161,,
167,2.0,1.6716716716716715,0.0380576657158483,,
168,2.0,1.6816816816816818,0.1305678380752996,,
169,2.0,1.6916916916916918,0.2112377091055608,,
170,2.0,1.7017017017017018,0.3119808091432851,,
171,2.0,1.7117117117117118,0.3858793273480431,,
172,2.0,1.7217217217217218,0.4676378581778445,,
173,2.0,1.7317317317317318,0.5321563232984006,,
174,2.0,1.7417417417417418,0.593953842330964,,
175,2.0,1.7517517517517518,0.6496766498774086,,
176,2.0,1.7617617617617618,0.6939851007737816,,
177,2.0,1.7717717717717718,0.7314426119535985,,
178,2.0,1.7817817817817818,0.7491723639658555,,
179,2.0,1.7917917917917918,0.7688149750258385,,
180,2.0,1.8018018018018016,0.7812648639072879,,
181,2.0,1.811811811811812,0.7691598834712629,,
182,2.0,1.8218218218218216,0.767698925096035,,
183,2.0,1.831831831831832,0.7495628555046917,,
184,2.0,1.8418418418418416,0.7316408102563146,,
185,2.0,1.851851851851852,0.6933765570684317,,
186,2.0,1.8618618618618616,0.6552967472171304,,
187,2.0,1.871871871871872,0.6118714552280022,,
188,2.0,1.8818818818818817,0.5637797656077952,,
189,2.0,1.891891891891892,0.5231370474847364,,
190,2.0,1.901901901901902,0.4692545866093701,,
191,2.0,1.911911911911912,0.4238956437137858,,
192,2.0,1.921921921921922,0.3765723391321943,,
193,2.0,1.931931931931932,0.317777593861453,,
194,2.0,1.941941941941942,0.2793611616155733,,
195,2.0,1.951951951951952,0.212826863535778,,
196,2.0,1.961961961961962,0.1820075129182694,,
197,2.0,1.971971971971972,0.1523634584028904,,
198,2.0,1.981981981981982,0.1102260525107484,,
199,2.0,1.991991991991992,0.0867248158056331,,
200,2.0,2.002002002002002,0.05730489277859,,
201,2.0,2.012012012012012,0.0431105233026121,,
202,2.0,2.022022022022022,0.0284767249841028,,
203,2.0,2.032032032032032,0.0192364806037925,,
204,2.0,2.042042042042042,0.0075263044209126,,
205,2.0,2.052052052052052,0.0067015086819299,,
206,2.0,2.062062062062062,0.0020353441193463,,
207,2.0,2.072072072072072,0.0008260793434661,,
208,2.0,2.0820820820820822,0.0089555525625891,,
209,2.0,2.092092092092092,0.0021360272885498,,
210,2.0,2.1021021021021022,-0.0068823865269769,,
211,2.0,2.112112112112112,-0.0072066993397626,,
212,2.0,2.1221221221221223,-0.0113307379426654,,
213,2.0,2.1321321321321323,-0.0101318315865732,,
214,2.0,2.1421421421421423,-0.0188473937781249,,
215,2.0,2.1521521521521523,-0.0274787288696345,,
216,2.0,2.1621621621621623,-0.0673448414627839,,
217,2.0,2.1721721721721723,-0.0653326543358483,,
218,2.0,2.1821821821821823,-0.1022503190893008,,
219,2.0,2.1921921921921923,-0.1354644281940486,,
220,2.0,2.2022022022022023,-0.1776677424038772,,
221,2.0,2.2122122122122123,-0.2137313677572301,,
222,2.0,2.2222222222222223,-0.2619114888447043,,
223,2.0,2.2322322322322323,-0.3128967712968879,,
224,2.0,2.2422422422422423,-0.3591489204428229,,
225,2.0,2.2522522522522523,-0.4096767993314605,,
226,2.0,2.2622622622622623,-0.4598839457822273,,
227,2.0,2.2722722722722724,-0.4955191990036941,,
228,2.0,2.2822822822822824,-0.5593848193914143,,
229,2.0,2.2922922922922924,-0.5965758066167222,,
230,2.0,2.3023023023023024,-0.6436316131159292,,
231,2.0,2.3123123123123124,-0.6848155726505374,,
232,2.0,2.3223223223223224,-0.7149389350685496,,
233,2.0,2.3323323323323324,-0.7532930952914916,,
234,2.0,2.3423423423423424,-0.7671368892318783,,
235,2.0,2.3523523523523524,-0.7778925639632769,,
236,2.0,2.3623623623623624,-0.7779987789055663,,
237,2.0,2.3723723723723724,-0.7828395201596324,,
238,2.0,2.3823823823823824,-0.7529931379553616,,
239,2.0,2.3923923923923924,-0.7272702253918186,,
240,2.0,2.4024024024024024,-0.7104122129467135,,
241,2.0,2.4124124124124124,-0.653415838478541,,
242,2.0,2.4224224224224224,-0.5958383541017588,,
243,2.0,2.4324324324324325,-0.55555738675311,,
244,2.0,2.4424424424424425,-0.4804394080670225,,
245,2.0,2.4524524524524525,-0.4128521199220375,,
246,2.0,2.4624624624624625,-0.3309101230447758,,
247,2.0,2.4724724724724725,-0.2374210526607947,,
248,2.0,2.4824824824824825,-0.1500002053370223,,
249,2.0,2.4924924924924925,-0.0685296438682927,,
250,2.0,2.5025025025025025,0.015271820483882,,
251,2.0,2.5125125125125125,0.1047036547451183,,
252,2.0,2.5225225225225225,0.2047741837388551,,
253,2.0,2.5325325325325325,0.288782607353979,,
254,2.0,2.5425425425425425,0.3633890269875528,,
255,2.0,2.5525525525525525,0.4393512357875144,,
256,2.0,2.5625625625625625,0.5138588878158281,,
257,2.0,2.5725725725725725,0.5748477492154077,,
258,2.0,2.5825825825825826,0.6316462563961635,,
259,2.0,2.592592592592593,0.6785022880390041,,
260,2.0,2.6026026026026026,0.713816175226931,,
261,2.0,2.612612612612613,0.7504403991424554,,
262,2.0,2.6226226226226226,0.7587273679057447,,
263,2.0,2.6326326326326326,0.7754081761819729,,
264,2.0,2.6426426426426426,0.7846392498667483,,
265,2.0,2.6526526526526526,0.7605902434374514,,
266,2.0,2.6626626626626626,0.7500230639199478,,
267,2.0,2.6726726726726726,0.7288589274298262,,
268,2.0,2.6826826826826826,0.707455932035179,,
269,2.0,2.6926926926926926,0.6690337599291708,,
270,2.0,2.702702702702702,0.6259225850056599,,
271,2.0,2.7127127127127126,0.5689172506913884,,
272,2.0,2.722722722722722,0.5311250383869761,,
273,2.0,2.7327327327327327,0.4759861695368914,,
274,2.0,2.7427427427427427,0.4299512646205953,,
275,2.0,2.7527527527527527,0.3762962819970871,,
276,2.0,2.7627627627627627,0.3240208065773702,,
277,2.0,2.7727727727727727,0.2812347310085477,,
278,2.0,2.7827827827827827,0.2386459345547566,,
279,2.0,2.7927927927927927,0.1973406047886435,,
280,2.0,2.8028028028028027,0.1723460246979868,,
281,2.0,2.8128128128128127,0.120404984700229,,
282,2.0,2.8228228228228227,0.0896871858786778,,
283,2.0,2.8328328328328327,0.0764840913501729,,
284,2.0,2.8428428428428427,0.054468562839288,,
285,2.0,2.8528528528528527,0.0263276229839096,,
286,2.0,2.8628628628628627,0.0163522065370393,,
287,2.0,2.8728728728728727,0.0031863381498219,,
288,2.0,2.8828828828828827,0.0034084636117798,,
289,2.0,2.8928928928928928,-0.0015802826678798,,
290,2.0,2.9029029029029028,0.0013619008700238,,
291,2.0,2.9129129129129128,-0.0083734302370631,,
292,2.0,2.9229229229229228,0.0017842199109495,,
293,2.0,2.932932932932933,-0.0002108135293569,,
294,2.0,2.942942942942943,-0.0023347577176171,,
295,2.0,2.952952952952953,-0.0068282624693001,,
296,2.0,2.962962962962963,-0.0138920386531332,,
297,2.0,2.972972972972973,-0.0190007082169848,,
298,2.0,2.982982982982983,-0.0301690250649855,,
299,2.0,2.992992992992993,-0.0612294728297336,,
300,2.0,3.003003003003003,-0.0700373389024412,,
301,2.0,3.013013013013013,-0.103541703411543,,
302,2.0,3.023023023023023,-0.1347339981502977,,
303,2.0,3.033033033033033,-0.1632244596610692,,
304,2.0,3.043043043043043,-0.2021129073890737,,
305,2.0,3.053053053053053,-0.2484517861736743,,
306,2.0,3.063063063063063,-0.3010464982202814,,
307,2.0,3.073073073073073,-0.3435655417146596,,
308,2.0,3.083083083083083,-0.3995593152428182,,
309,2.0,3.093093093093093,-0.4493810870246569,,
310,2.0,3.103103103103103,-0.4932525283309512,,
311,2.0,3.113113113113113,-0.547851173227111,,
312,2.0,3.123123123123123,-0.5933830476064661,,
313,2.0,3.133133133133133,-0.6389819776111751,,
314,2.0,3.143143143143143,-0.6719611844909434,,
315,2.0,3.153153153153153,-0.7052352300890472,,
316,2.0,3.163163163163163,-0.7343385087481215,,
317,2.0,3.173173173173173,-0.7658026399908072,,
318,2.0,3.183183183183183,-0.776686881121724,,
319,2.0,3.193193193193193,-0.7817074339897155,,
320,2.0,3.203203203203203,-0.7684775059966096,,
321,2.0,3.2132132132132134,-0.7666175364900676,,
322,2.0,3.2232232232232234,-0.7293068766949359,,
323,2.0,3.2332332332332334,-0.7133778515915175,,
324,2.0,3.2432432432432434,-0.658076753743026,,
325,2.0,3.253253253253253,-0.6212711828524801,,
326,2.0,3.2632632632632634,-0.5705685642949188,,
327,2.0,3.273273273273273,-0.4894943317087602,,
328,2.0,3.2832832832832834,-0.4252462676414479,,
329,2.0,3.293293293293293,-0.3559127739657896,,
330,2.0,3.3033033033033035,-0.2665851580391511,,
331,2.0,3.313313313313313,-0.1860849544972675,,
332,2.0,3.3233233233233235,-0.0872030499979075,,
333,2.0,3.333333333333333,0.0056967523520007,,
334,2.0,3.3433433433433435,0.0956669762529602,,
335,2.0,3.353353353353353,0.1750221207124473,,
336,2.0,3.3633633633633635,0.2716656714804413,,
337,2.0,3.373373373373373,0.3415183563042352,,
338,2.0,3.3833833833833835,0.4225169346951448,,
339,2.0,3.393393393393393,0.4933226316677966,,
340,2.0,3.4034034034034035,0.5614611525463129,,
341,2.0,3.413413413413413,0.6254700511293856,,
342,2.0,3.4234234234234235,0.6615013342820405,,
343,2.0,3.433433433433433,0.7119713564535164,,
344,2.0,3.443443443443444,0.7505171527973558,,
345,2.0,3.4534534534534536,0.7574916282065639,,
346,2.0,3.463463463463464,0.7921026091271446,,
347,2.0,3.4734734734734736,0.7873760659070579,,
348,2.0,3.483483483483484,0.7776885110418443,,
349,2.0,3.4934934934934936,0.7525335653193891,,
350,2.0,3.503503503503504,0.7375609561849003,,
351,2.0,3.5135135135135136,0.7084018555446258,,
352,2.0,3.523523523523524,0.6792118553285948,,
353,2.0,3.5335335335335336,0.6253483218879347,,
354,2.0,3.543543543543544,0.5891725847175721,,
355,2.0,3.5535535535535536,0.5459003302469617,,
356,2.0,3.563563563563564,0.4904560689947177,,
357,2.0,3.5735735735735736,0.4501659069350486,,
358,2.0,3.583583583583584,0.3899505426118897,,
359,2.0,3.5935935935935936,0.3398108574769477,,
360,2.0,3.603603603603604,0.2937998304192618,,
361,2.0,3.6136136136136137,0.2380654605837096,,
362,2.0,3.623623623623624,0.2019966179420769,,
363,2.0,3.6336336336336337,0.1643117087330276,,
364,2.0,3.643643643643644,0.1379853907173475,,
365,2.0,3.6536536536536537,0.100194876661325,,
366,2.0,3.663663663663664,0.0844773939782749,,
367,2.0,3.6736736736736737,0.0577083058288118,,
368,2.0,3.683683683683684,0.0297389453810449,,
369,2.0,3.6936936936936937,0.019553292561534,,
370,2.0,3.703703703703704,0.0213350350262516,,
371,2.0,3.7137137137137137,-0.0010459798739958,,
372,2.0,3.723723723723724,0.0043125349171792,,
373,2.0,3.7337337337337337,-0.0039626983154399,,
374,2.0,3.743743743743744,0.0015898950473824,,
375,2.0,3.7537537537537538,0.0063050888371091,,
376,2.0,3.763763763763764,-0.0017907325174318,,
377,2.0,3.7737737737737738,-0.0059669711737313,,
378,2.0,3.783783783783784,0.0013222337676197,,
379,2.0,3.793793793793794,-0.0047126892717415,,
380,2.0,3.803803803803804,-0.0189524597895006,,
381,2.0,3.813813813813814,-0.0287849565369911,,
382,2.0,3.823823823823824,-0.0536420577273118,,
383,2.0,3.833833833833834,-0.0669634936169907,,
384,2.0,3.843843843843844,-0.0940873827066945,,
385,2.0,3.853853853853854,-0.1222464621226328,,
386,2.0,3.863863863863864,-0.1474385999633032,,
387,2.0,3.873873873873874,-0.1910369818716386,,
388,2.0,3.883883883883884,-0.2316242687521519,,
389,2.0,3.893893893893894,-0.2811243505044199,,
390,2.0,3.903903903903904,-0.324190930978957,,
391,2.0,3.913913913913914,-0.3775828642746583,,
392,2.0,3.923923923923924,-0.4264836810460534,,
393,2.0,3.933933933933934,-0.4810726622510273,,
394,2.0,3.943943943943944,-0.5329649657991412,,
395,2.0,3.953953953953954,-0.5803068895467031,,
396,2.0,3.963963963963964,-0.6273461054978949,,
397,2.0,3.973973973973974,-0.6696541927939194,,
398,2.0,3.983983983983984,-0.7011455937629482,,
399,2.0,3.993993993993994,-0.7325751352006599,,
400,2.0,4.004004004004004,-0.7547438255004989,,
401,2.0,4.014014014014014,-0.7768918054996192,,
402,2.0,4.024024024024024,-0.7728559610788692,,
403,2.0,4.034034034034034,-0.7785498384708511,,
404,2.0,4.044044044044044,-0.7711295919032347,,
405,2.0,4.054054054054054,-0.7445007474927681,,
406,2.0,4.064064064064064,-0.7199750434668681,,
407,2.0,4.074074074074074,-0.6852872068440765,,
408,2.0,4.084084084084084,-0.6393796783981809,,
409,2.0,4.094094094094094,-0.575980752948327,,
410,2.0,4.104104104104104,-0.5134542329644164,,
411,2.0,4.114114114114114,-0.4459749553642402,,
412,2.0,4.124124124124124,-0.3643214694470612,,
413,2.0,4.134134134134134,-0.2881496952206281,,
414,2.0,4.144144144144144,-0.2038078113822925,,
415,2.0,4.1541541541541545,-0.1149941655068153,,
416,2.0,4.1641641641641645,-0.0217953044184452,,
417,2.0,4.174174174174175,0.0692290914691346,,
418,2.0,4.1841841841841845,0.1587547118741849,,
419,2.0,4.1941941941941945,0.2451527792139861,,
420,2.0,4.2042042042042045,0.3324136468625076,,
421,2.0,4.214214214214215,0.411455368449426,,
422,2.0,4.2242242242242245,0.4787062427731959,,
423,2.0,4.2342342342342345,0.5446942864712331,,
424,2.0,4.2442442442442445,0.6199204913803888,,
425,2.0,4.254254254254255,0.6546576861874901,,
426,2.0,4.2642642642642645,0.7095209435734007,,
427,2.0,4.2742742742742745,0.7375082179049275,,
428,2.0,4.2842842842842845,0.7662589729836365,,
429,2.0,4.294294294294295,0.7795255051157477,,
430,2.0,4.3043043043043046,0.7805912599961249,,
431,2.0,4.314314314314315,0.7644614515895883,,
432,2.0,4.324324324324325,0.7547918681578742,,
433,2.0,4.334334334334335,0.7481933972854772,,
434,2.0,4.344344344344345,0.7165581474715298,,
435,2.0,4.354354354354355,0.680466257918584,,
436,2.0,4.364364364364365,0.6342438976673684,,
437,2.0,4.374374374374375,0.5943225174628974,,
438,2.0,4.384384384384385,0.5510744146460165,,
439,2.0,4.394394394394395,0.5060977538670645,,
440,2.0,4.404404404404405,0.454701121460791,,
441,2.0,4.414414414414415,0.4044830716379464,,
442,2.0,4.424424424424425,0.3475462935519621,,
443,2.0,4.434434434434435,0.3058805529601558,,
444,2.0,4.444444444444445,0.2603383593164023,,
445,2.0,4.454454454454455,0.2124865153200499,,
446,2.0,4.464464464464465,0.1693471483237687,,
447,2.0,4.474474474474475,0.1346439152659575,,
448,2.0,4.484484484484485,0.1130143074095909,,
449,2.0,4.494494494494495,0.0686354350521472,,
450,2.0,4.504504504504505,0.0561259165466125,,
451,2.0,4.514514514514515,0.0328602755838564,,
452,2.0,4.524524524524525,0.030853546782062,,
453,2.0,4.534534534534535,0.0204774026748841,,
454,2.0,4.544544544544545,0.0019570935621372,,
455,2.0,4.554554554554555,0.0036371869159763,,
456,2.0,4.564564564564565,0.0022911557717515,,
457,2.0,4.574574574574575,-0.0050368502697352,,
458,2.0,4.584584584584585,0.0109358520311322,,
459,2.0,4.594594594594595,-0.0047561173525019,,
460,2.0,4.604604604604605,-0.0055395035055718,,
461,2.0,4.614614614614615,-0.0087744017783243,,
462,2.0,4.624624624624625,-0.0115157042872299,,
463,2.0,4.634634634634635,-0.0245047319268567,,
464,2.0,4.644644644644645,-0.0217690635576889,,
465,2.0,4.654654654654655,-0.0364879697462193,,
466,2.0,4.664664664664665,-0.0622881500936195,,
467,2.0,4.674674674674675,-0.0863840135794253,,
468,2.0,4.684684684684685,-0.1086244521465387,,
469,2.0,4.694694694694695,-0.1476845456347433,,
470,2.0,4.704704704704705,-0.1863572525301371,,
471,2.0,4.714714714714715,-0.2264694087122916,,
472,2.0,4.724724724724725,-0.2670384737083567,,
473,2.0,4.734734734734735,-0.3199989553411746,,
474,2.0,4.744744744744745,-0.3703983087110667,,
475,2.0,4.754754754754755,-0.4160085376453265,,
476,2.0,4.764764764764765,-0.4695326549718429,,
477,2.0,4.774774774774775,-0.5129260078884711,,
478,2.0,4.784784784784785,-0.5693419172738016,,
479,2.0,4.794794794794795,-0.621100349657456,,
480,2.0,4.804804804804805,-0.6475320555757148,,
481,2.0,4.814814814814815,-0.7007015761372047,,
482,2.0,4.824824824824825,-0.7236339089489924,,
483,2.0,4.834834834834835,-0.7451065484586523,,
484,2.0,4.844844844844845,-0.765060667873739,,
485,2.0,4.854854854854855,-0.7774723931991633,,
486,2.0,4.864864864864865,-0.7804991471615295,,
487,2.0,4.874874874874875,-0.7742378204001484,,
488,2.0,4.884884884884885,-0.7590202503471362,,
489,2.0,4.894894894894895,-0.7299991791702897,,
490,2.0,4.904904904904905,-0.6894812701303451,,
491,2.0,4.914914914914915,-0.6351589666168449,,
492,2.0,4.924924924924925,-0.591578182197056,,
493,2.0,4.934934934934935,-0.5364268607068363,,
494,2.0,4.944944944944945,-0.4574292452690657,,
495,2.0,4.954954954954955,-0.3855266803524824,,
496,2.0,4.964964964964965,-0.3185766500505171,,
497,2.0,4.974974974974975,-0.2157840207545031,,
498,2.0,4.984984984984985,-0.1398692372627176,,
499,2.0,4.994994994994995,-0.0469797801079037,,
500,2.0,5.005005005005005,0.0535616823611279,,
501,2.0,5.015015015015015,0.1430369942564157,,
502,2.0,5.025025025025025,0.214893916173889,,
503,2.0,5.035035035035035,0.3087603422575552,,
504,2.0,5.045045045045045,0.3888545871225773,,
505,2.0,5.055055055055055,0.4668509109745465,,
506,2.0,5.065065065065065,0.5286429791764988,,
507,2.0,5.075075075075075,0.5939430545185346,,
508,2.0,5.085085085085085,0.6465494630789731,,
509,2.0,5.095095095095095,0.6877841726488956,,
510,2.0,5.105105105105105,0.7225094362555227,,
511,2.0,5.115115115115115,0.7588460886936919,,
512,2.0,5.125125125125125,0.7678670659880069,,
513,2.0,5.135135135135135,0.777224220714331,,
514,2.0,5.145145145145145,0.7738066358976142,,
515,2.0,5.155155155155155,0.7677400057383952,,
516,2.0,5.165165165165165,0.7522767554778648,,
517,2.0,5.175175175175175,0.7266362007237351,,
518,2.0,5.185185185185185,0.6873493590665626,,
519,2.0,5.195195195195195,0.6514728695275271,,
520,2.0,5.205205205205205,0.6138446148424391,,
521,2.0,5.215215215215215,0.5652382684716758,,
522,2.0,5.225225225225225,0.5307026024369127,,
523,2.0,5.235235235235235,0.4660196584299157,,
524,2.0,5.245245245245245,0.4170831290531286,,
525,2.0,5.255255255255255,0.3758974949026796,,
526,2.0,5.265265265265265,0.3217452183927469,,
527,2.0,5.275275275275275,0.2802772270219819,,
528,2.0,5.285285285285285,0.2239029370298527,,
529,2.0,5.295295295295295,0.1874603226476531,,
530,2.0,5.305305305305305,0.1528884506706234,,
531,2.0,5.315315315315315,0.1124017790246706,,
532,2.0,5.325325325325325,0.0866158974298593,,
533,2.0,5.335335335335335,0.063288440273203,,
534,2.0,5.345345345345345,0.0393163301662776,,
535,2.0,5.355355355355355,0.0285818530512425,,
536,2.0,5.365365365365365,0.0182495090876928,,
537,2.0,5.375375375375375,0.0083466890518381,,
538,2.0,5.385385385385385,0.0002040575497664,,
539,2.0,5.395395395395395,-0.0079859754425763,,
540,2.0,5.405405405405405,-0.0016289001340944,,
541,2.0,5.415415415415415,0.0048140734253263,,
542,2.0,5.425425425425425,-0.0025379148303774,,
543,2.0,5.435435435435435,-0.0045338260717841,,
544,2.0,5.445445445445445,0.0019938544558167,,
545,2.0,5.455455455455455,-0.0123073301817777,,
546,2.0,5.465465465465465,-0.0099933109061584,,
547,2.0,5.475475475475475,-0.029422900664709,,
548,2.0,5.485485485485485,-0.027086961156573,,
549,2.0,5.495495495495495,-0.0553561500466038,,
550,2.0,5.505505505505505,-0.0817221888895261,,
551,2.0,5.515515515515515,-0.1063129724193544,,
552,2.0,5.525525525525525,-0.1381685282114712,,
553,2.0,5.535535535535535,-0.1863277307203848,,
554,2.0,5.545545545545545,-0.2205241523178616,,
555,2.0,5.555555555555555,-0.2557705445405853,,
556,2.0,5.565565565565565,-0.3083454935310591,,
557,2.0,5.575575575575575,-0.3577259184555965,,
558,2.0,5.585585585585585,-0.4065477177671216,,
559,2.0,5.595595595595595,-0.4529442842090328,,
560,2.0,5.605605605605605,-0.5117707400152086,,
561,2.0,5.615615615615615,-0.5581350531956173,,
562,2.0,5.625625625625625,-0.6010817201485719,,
563,2.0,5.635635635635635,-0.657093567212851,,
564,2.0,5.645645645645645,-0.6813471040615485,,
565,2.0,5.655655655655655,-0.7161059206027016,,
566,2.0,5.665665665665665,-0.7502759804698739,,
567,2.0,5.675675675675675,-0.7591628222116915,,
568,2.0,5.685685685685685,-0.7828047546986836,,
569,2.0,5.695695695695696,-0.7752500821551136,,
570,2.0,5.7057057057057055,-0.7667847143127485,,
571,2.0,5.715715715715716,-0.7646173004879816,,
572,2.0,5.7257257257257255,-0.7315158690456294,,
573,2.0,5.735735735735736,-0.7014957862114215,,
574,2.0,5.7457457457457455,-0.654078424034233,,
575,2.0,5.755755755755756,-0.6060529690113384,,
576,2.0,5.7657657657657655,-0.5434719551801629,,
577,2.0,5.775775775775776,-0.4819395931353898,,
578,2.0,5.7857857857857855,-0.4030337413752776,,
579,2.0,5.795795795795796,-0.3213261272843192,,
580,2.0,5.8058058058058055,-0.2430803963925634,,
581,2.0,5.815815815815816,-0.1638310410150597,,
582,2.0,5.8258258258258255,-0.0702654569332731,,
583,2.0,5.835835835835836,0.0137560136234642,,
584,2.0,5.8458458458458455,0.1152134670778465,,
585,2.0,5.855855855855856,0.2046279500780973,,
586,2.0,5.865865865865866,0.2859054789931055,,
587,2.0,5.875875875875876,0.3709582692588882,,
588,2.0,5.885885885885886,0.4428819119147971,,
589,2.0,5.895895895895896,0.5201154380841727,,
590,2.0,5.905905905905906,0.5755639395124991,,
591,2.0,5.915915915915916,0.6361927092580815,,
592,2.0,5.925925925925926,0.6731876799654547,,
593,2.0,5.935935935935936,0.7225232328776184,,
594,2.0,5.945945945945946,0.7473029825874469,,
595,2.0,5.955955955955956,0.7757166399500323,,
596,2.0,5.965965965965966,0.7724896234488005,,
597,2.0,5.975975975975976,0.779355053936295,,
598,2.0,5.985985985985986,0.7724056887497197,,
599,2.0,5.995995995995996,0.7534942045580599,,
600,2.0,6.006006006006006,0.7373765977043335,,
601,2.0,6.016016016016016,0.6990431335459748,,
602,2.0,6.026026026026026,0.6568028302746224,,
603,2.0,6.036036036036036,0.631179668562118,,
604,2.0,6.046046046046046,0.5766362682581249,,
605,2.0,6.056056056056056,0.5342891528717632,,
606,2.0,6.066066066066066,0.4811876422798544,,
607,2.0,6.076076076076076,0.4249428737378706,,
608,2.0,6.086086086086086,0.3863631877915717,,
609,2.0,6.096096096096096,0.3329572749897994,,
610,2.0,6.106106106106106,0.278464639366547,,
611,2.0,6.116116116116116,0.2306126409664601,,
612,2.0,6.126126126126126,0.2005987573837748,,
613,2.0,6.136136136136136,0.1549340610898117,,
614,2.0,6.146146146146146,0.1201583974796296,,
615,2.0,6.156156156156156,0.0950471649130797,,
616,2.0,6.166166166166166,0.0707956240389754,,
617,2.0,6.176176176176176,0.0502050840347758,,
618,2.0,6.186186186186186,0.0375740910748054,,
619,2.0,6.196196196196196,0.0183455404380911,,
620,2.0,6.206206206206206,0.0170674668931209,,
621,2.0,6.216216216216216,0.008761037680523,,
622,2.0,6.226226226226226,0.0061632542876984,,
623,2.0,6.236236236236236,0.0114369427686857,,
624,2.0,6.246246246246246,-0.0013084717323072,,
625,2.0,6.256256256256256,-0.0020840313891218,,
626,2.0,6.266266266266266,0.0041918220280492,,
627,2.0,6.276276276276276,0.0030827356103004,,
628,2.0,6.286286286286286,-0.0079463307655109,,
629,2.0,6.296296296296296,-0.0151532676394968,,
630,2.0,6.306306306306306,-0.0215997818429975,,
631,2.0,6.316316316316316,-0.0352620925593843,,
632,2.0,6.326326326326326,-0.0499054449553719,,
633,2.0,6.336336336336336,-0.079832858875707,,
634,2.0,6.346346346346346,-0.0941592624323194,,
635,2.0,6.356356356356356,-0.1355303504131009,,
636,2.0,6.366366366366366,-0.1581803576686394,,
637,2.0,6.376376376376376,-0.2119145466213672,,
638,2.0,6.386386386386386,-0.257354147957733,,
639,2.0,6.396396396396396,-0.2964164842574567,,
640,2.0,6.406406406406406,-0.3470123032611347,,
641,2.0,6.416416416416417,-0.391215429680847,,
642,2.0,6.426426426426427,-0.4382324988367037,,
643,2.0,6.436436436436437,-0.4971401583671992,,
644,2.0,6.446446446446447,-0.5471338449538278,,
645,2.0,6.456456456456457,-0.5939402635253828,,
646,2.0,6.466466466466467,-0.6347444783894173,,
647,2.0,6.476476476476477,-0.6738179285624151,,
648,2.0,6.486486486486487,-0.7100082856953416,,
649,2.0,6.496496496496497,-0.7407551214177822,,
650,2.0,6.506506506506507,-0.7591109675651694,,
651,2.0,6.516516516516517,-0.7713312149600166,,
652,2.0,6.526526526526527,-0.7761512398477629,,
653,2.0,6.536536536536537,-0.7789894136089855,,
654,2.0,6.546546546546547,-0.7598546228668606,,
655,2.0,6.556556556556557,-0.738080712753385,,
656,2.0,6.566566566566567,-0.7061787280681727,,
657,2.0,6.576576576576577,-0.6710089706960123,,
658,2.0,6.586586586586587,-0.6206229173690465,,
659,2.0,6.596596596596597,-0.5599633545150766,,
660,2.0,6.606606606606607,-0.5015455218227118,,
661,2.0,6.616616616616617,-0.4237680455233835,,
662,2.0,6.626626626626627,-0.3379993516214983,,
663,2.0,6.636636636636637,-0.268342299424103,,
664,2.0,6.646646646646647,-0.17537992936524,,
665,2.0,6.656656656656657,-0.0944603989010054,,
666,2.0,6.666666666666667,0.0024010509599312,,
667,2.0,6.676676676676677,0.0819877861492443,,
668,2.0,6.686686686686687,0.1786816598007418,,
669,2.0,6.696696696696697,0.263626159970773,,
670,2.0,6.706706706706707,0.3579988198621996,,
671,2.0,6.716716716716717,0.4189539687798097,,
672,2.0,6.726726726726727,0.4975787204199679,,
673,2.0,6.736736736736737,0.5682345893642649,,
674,2.0,6.746746746746747,0.6209215880629457,,
675,2.0,6.756756756756757,0.6764793867343136,,
676,2.0,6.766766766766767,0.7108910408674319,,
677,2.0,6.776776776776777,0.743447913074069,,
678,2.0,6.786786786786787,0.7581818131566098,,
679,2.0,6.796796796796797,0.7807146410230877,,
680,2.0,6.806806806806807,0.7757147214893998,,
681,2.0,6.816816816816817,0.7775954600611763,,
682,2.0,6.826826826826827,0.7568766147979952,,
683,2.0,6.836836836836837,0.7381170540695605,,
684,2.0,6.846846846846847,0.711784340346953,,
685,2.0,6.856856856856857,0.6718592470244306,,
686,2.0,6.866866866866867,0.6405724670126881,,
687,2.0,6.876876876876877,0.5883551401919906,,
688,2.0,6.886886886886887,0.5392054987130426,,
689,2.0,6.896896896896897,0.4849722946521738,,
690,2.0,6.906906906906907,0.4427343911951343,,
691,2.0,6.916916916916917,0.3924341012989668,,
692,2.0,6.926926926926927,0.3380829583262599,,
693,2.0,6.936936936936937,0.2939973732680206,,
694,2.0,6.946946946946947,0.2507609174037362,,
695,2.0,6.956956956956957,0.1942653028783167,,
696,2.0,6.966966966966967,0.1661439728288178,,
697,2.0,6.976976976976977,0.1492956992019183,,
698,2.0,6.986986986986987,0.0973102102407894,,
699,2.0,6.996996996996997,0.0785112053659958,,
700,2.0,7.007007007007007,0.0583307745925615,,
701,2.0,7.017017017017017,0.0326544339563795,,
702,2.0,7.027027027027027,0.0115621836660486,,
703,2.0,7.037037037037037,0.0058511585806539,,
704,2.0,7.047047047047047,-0.0046450172437142,,
705,2.0,7.057057057057057,0.0033137679977572,,
706,2.0,7.067067067067067,-0.0069795365047001,,
707,2.0,7.077077077077077,-0.0092398818948921,,
708,2.0,7.087087087087087,0.0050865578144927,,
709,2.0,7.097097097097097,0.0027760051663301,,
710,2.0,7.107107107107107,-0.0060933523389048,,
711,2.0,7.117117117117117,-0.0084475536457252,,
712,2.0,7.127127127127127,-0.0115712866881222,,
713,2.0,7.137137137137137,-0.0264147487933754,,
714,2.0,7.147147147147147,-0.0350182821791913,,
715,2.0,7.157157157157157,-0.0530327317487381,,
716,2.0,7.167167167167167,-0.0781628244809818,,
717,2.0,7.177177177177177,-0.0907216562381286,,
718,2.0,7.187187187187187,-0.1209411325051828,,
719,2.0,7.197197197197197,-0.1587631803030272,,
720,2.0,7.207207207207207,-0.1937947886657233,,
721,2.0,7.217217217217217,-0.2342472350489908,,
722,2.0,7.227227227227227,-0.2789211848485587,,
723,2.0,7.237237237237237,-0.3265447068641837,,
724,2.0,7.247247247247247,-0.3766687859012723,,
725,2.0,7.257257257257257,-0.4329120247256774,,
726,2.0,7.267267267267267,-0.4869759470467446,,
727,2.0,7.277277277277277,-0.5328678857627129,,
728,2.0,7.287287287287287,-0.5793065625392678,,
729,2.0,7.297297297297297,-0.6303247775028276,,
730,2.0,7.307307307307307,-0.6623445955062017,,
731,2.0,7.317317317317317,-0.7010246678107991,,
732,2.0,7.327327327327327,-0.7399458386842722,,
733,2.0,7.337337337337337,-0.7515407805097167,,
734,2.0,7.347347347347347,-0.7719624720528819,,
735,2.0,7.357357357357357,-0.7783977472806545,,
736,2.0,7.367367367367367,-0.7795625229018185,,
737,2.0,7.377377377377377,-0.7741962494562891,,
738,2.0,7.387387387387387,-0.7499780455939374,,
739,2.0,7.397397397397397,-0.7169072810147762,,
740,2.0,7.407407407407407,-0.6839336702258126,,
741,2.0,7.4174174174174174,-0.6363595766902943,,
742,2.0,7.4274274274274275,-0.5747903352066391,,
743,2.0,7.437437437437437,-0.5177315467598985,,
744,2.0,7.447447447447447,-0.4401422344899133,,
745,2.0,7.4574574574574575,-0.3694126580279406,,
746,2.0,7.4674674674674675,-0.2790207358505168,,
747,2.0,7.477477477477477,-0.2110060571062238,,
748,2.0,7.487487487487487,-0.1086825810853855,,
749,2.0,7.4974974974974975,-0.0180524455736625,,
750,2.0,7.5075075075075075,0.0617334393168189,,
751,2.0,7.517517517517517,0.1547645788616973,,
752,2.0,7.527527527527527,0.2464427440877295,,
753,2.0,7.5375375375375375,0.3352117950667601,,
754,2.0,7.5475475475475475,0.4069357143682224,,
755,2.0,7.557557557557557,0.4750338075052586,,
756,2.0,7.567567567567567,0.5569305591759515,,
757,2.0,7.5775775775775776,0.6135837297583103,,
758,2.0,7.587587587587588,0.6549363795265878,,
759,2.0,7.597597597597598,0.7031791278303952,,
760,2.0,7.607607607607608,0.7299910444143359,,
761,2.0,7.617617617617618,0.7537827685056581,,
762,2.0,7.627627627627628,0.7827259671844988,,
763,2.0,7.637637637637638,0.7825481784610983,,
764,2.0,7.647647647647648,0.7738624213782833,,
765,2.0,7.657657657657658,0.7686751018542528,,
766,2.0,7.667667667667668,0.7466614771092801,,
767,2.0,7.677677677677678,0.7199372600208279,,
768,2.0,7.687687687687688,0.6892411466071982,,
769,2.0,7.697697697697698,0.6421672032552987,,
770,2.0,7.707707707707708,0.6033804739518059,,
771,2.0,7.717717717717718,0.5481544901419904,,
772,2.0,7.727727727727728,0.509213197228435,,
773,2.0,7.737737737737738,0.4511648992352047,,
774,2.0,7.747747747747748,0.4126694681692028,,
775,2.0,7.757757757757758,0.341265846638413,,
776,2.0,7.767767767767768,0.305273103754457,,
777,2.0,7.777777777777778,0.2634541535280491,,
778,2.0,7.787787787787788,0.2188575881016499,,
779,2.0,7.797797797797798,0.1775279631237057,,
780,2.0,7.807807807807808,0.1318281033676268,,
781,2.0,7.817817817817818,0.1012117284181567,,
782,2.0,7.827827827827828,0.0753529188001997,,
783,2.0,7.837837837837838,0.0545553739726834,,
784,2.0,7.847847847847848,0.0416051714966068,,
785,2.0,7.857857857857858,0.0224177740735006,,
786,2.0,7.867867867867868,0.0154771204818108,,
787,2.0,7.877877877877878,0.0160452673715621,,
788,2.0,7.887887887887888,0.0035315128968309,,
789,2.0,7.897897897897898,-0.0027862790744391,,
790,2.0,7.907907907907908,-0.0027352448796872,,
791,2.0,7.917917917917918,-0.0029938069353732,,
792,2.0,7.927927927927928,0.0005934411434331,,
793,2.0,7.937937937937938,-0.0009782975975439,,
794,2.0,7.947947947947948,-0.0084366822102774,,
795,2.0,7.957957957957958,-0.0176492614471488,,
796,2.0,7.967967967967968,-0.0194859260059139,,
797,2.0,7.977977977977978,-0.0221663440773208,,
798,2.0,7.987987987987988,-0.0415804285179909,,
799,2.0,7.997997997997998,-0.0592906697959516,,
800,2.0,8.008008008008009,-0.0880653255749504,,
801,2.0,8.018018018018019,-0.1135202072863797,,
802,2.0,8.028028028028029,-0.1526414743145402,,
803,2.0,8.038038038038039,-0.1761910195600722,,
804,2.0,8.048048048048049,-0.2184807999441581,,
805,2.0,8.058058058058059,-0.2642125140185897,,
806,2.0,8.068068068068069,-0.3125815154298468,,
807,2.0,8.078078078078079,-0.3690598827848717,,
808,2.0,8.088088088088089,-0.4214183332101486,,
809,2.0,8.098098098098099,-0.4761510519659612,,
810,2.0,8.108108108108109,-0.5203076282582098,,
811,2.0,8.118118118118119,-0.5700682098656686,,
812,2.0,8.128128128128129,-0.6124647305743584,,
813,2.0,8.138138138138139,-0.6623906212557684,,
814,2.0,8.148148148148149,-0.6986335590959745,,
815,2.0,8.158158158158159,-0.72724616348858,,
816,2.0,8.168168168168169,-0.7567626694083929,,
817,2.0,8.178178178178179,-0.7674001561247347,,
818,2.0,8.188188188188189,-0.7804130211623019,,
819,2.0,8.198198198198199,-0.7744428933420614,,
820,2.0,8.208208208208209,-0.7677675528170739,,
821,2.0,8.218218218218219,-0.7499942075375167,,
822,2.0,8.228228228228229,-0.7242326510262999,,
823,2.0,8.238238238238239,-0.6926923418756682,,
824,2.0,8.248248248248249,-0.6476600730733073,,
825,2.0,8.258258258258259,-0.5922881998453227,,
826,2.0,8.268268268268269,-0.5339771709035631,,
827,2.0,8.278278278278279,-0.4611261390094404,,
828,2.0,8.288288288288289,-0.3940640313792909,,
829,2.0,8.298298298298299,-0.3075312650110272,,
830,2.0,8.308308308308309,-0.217061073624728,,
831,2.0,8.318318318318319,-0.1295523021332537,,
832,2.0,8.328328328328329,-0.0514659447158875,,
833,2.0,8.338338338338339,0.0370891752059851,,
834,2.0,8.348348348348349,0.1344745595909985,,
835,2.0,8.358358358358359,0.2212084760630394,,
836,2.0,8.368368368368369,0.3053505289130405,,
837,2.0,8.378378378378379,0.3948111413141774,,
838,2.0,8.388388388388389,0.4608144015819414,,
839,2.0,8.398398398398399,0.5370646596754475,,
840,2.0,8.408408408408409,0.5896563162709797,,
841,2.0,8.418418418418419,0.6492492627477757,,
842,2.0,8.428428428428429,0.6873076131599593,,
843,2.0,8.438438438438439,0.7276421573546287,,
844,2.0,8.448448448448449,0.7437611523475091,,
845,2.0,8.458458458458459,0.771375393318289,,
846,2.0,8.468468468468469,0.774543907639241,,
847,2.0,8.478478478478479,0.7765032574201526,,
848,2.0,8.488488488488489,0.7722412911447089,,
849,2.0,8.498498498498499,0.7573912334783719,,
850,2.0,8.508508508508509,0.7250706695237839,,
851,2.0,8.518518518518519,0.6923759829984028,,
852,2.0,8.528528528528529,0.6632178257025403,,
853,2.0,8.538538538538539,0.6086003895177334,,
854,2.0,8.548548548548549,0.5643449230365951,,
855,2.0,8.558558558558559,0.5228371624320344,,
856,2.0,8.568568568568569,0.4665973042574304,,
857,2.0,8.578578578578579,0.4169599657568754,,
858,2.0,8.588588588588589,0.3614636778230702,,
859,2.0,8.598598598598599,0.3264274900940433,,
860,2.0,8.608608608608609,0.2646600216533877,,
861,2.0,8.618618618618619,0.2314879404082198,,
862,2.0,8.62862862862863,0.1932892142089336,,
863,2.0,8.63863863863864,0.1396379823121523,,
864,2.0,8.64864864864865,0.1116338010039501,,
865,2.0,8.65865865865866,0.0837643993617428,,
866,2.0,8.66866866866867,0.0599144770651915,,
867,2.0,8.67867867867868,0.0432149167813247,,
868,2.0,8.68868868868869,0.0337692050710541,,
869,2.0,8.6986986986987,0.0163824269699027,,
870,2.0,8.70870870870871,0.0051759401745621,,
871,2.0,8.71871871871872,-0.0016233036823049,,
872,2.0,8.72872872872873,-0.0006071911848932,,
873,2.0,8.73873873873874,-0.0024890700710652,,
874,2.0,8.74874874874875,0.0005396145788494,,
875,2.0,8.75875875875876,0.001313262535246,,
876,2.0,8.76876876876877,-0.0066252844788382,,
877,2.0,8.77877877877878,-0.0084152365064794,,
878,2.0,8.78878878878879,-0.0132564832891148,,
879,2.0,8.7987987987988,-0.0114829085971517,,
880,2.0,8.80880880880881,-0.0262952297636081,,
881,2.0,8.81881881881882,-0.030553838317778,,
882,2.0,8.82882882882883,-0.0559642093604495,,
883,2.0,8.83883883883884,-0.0813565033929785,,
884,2.0,8.84884884884885,-0.1070750230938828,,
885,2.0,8.85885885885886,-0.1400761486820398,,
886,2.0,8.86886886886887,-0.1825403867869168,,
887,2.0,8.87887887887888,-0.2193412554560327,,
888,2.0,8.88888888888889,-0.2623842249419164,,
889,2.0,8.8988988988989,-0.3057725414372367,,
890,2.0,8.90890890890891,-0.3503119076245743,,
891,2.0,8.91891891891892,-0.3981980948033461,,
892,2.0,8.92892892892893,-0.4546159041930765,,
893,2.0,8.93893893893894,-0.5059420869060097,,
894,2.0,8.94894894894895,-0.5493099585645713,,
895,2.0,8.95895895895896,-0.6036824389174495,,
896,2.0,8.96896896896897,-0.6443140724555395,,
897,2.0,8.97897897897898,-0.6850432465073307,,
898,2.0,8.98898898898899,-0.7223813030743269,,
899,2.0,8.998998998999,-0.7524861027020585,,
900,2.0,9.00900900900901,-0.7669842373279144,,
901,2.0,9.01901901901902,-0.7779681202308083,,
902,2.0,9.02902902902903,-0.7821697428660941,,
903,2.0,9.03903903903904,-0.7676818088791136,,
904,2.0,9.04904904904905,-0.7570731745858612,,
905,2.0,9.05905905905906,-0.7325067107834883,,
906,2.0,9.06906906906907,-0.7060632874790569,,
907,2.0,9.07907907907908,-0.6598290809695723,,
908,2.0,9.08908908908909,-0.6066002773344612,,
909,2.0,9.0990990990991,-0.5600183515019939,,
910,2.0,9.10910910910911,-0.4758391119123594,,
911,2.0,9.11911911911912,-0.4048676898551435,,
912,2.0,9.12912912912913,-0.3190880678408174,,
913,2.0,9.13913913913914,-0.2530547382471697,,
914,2.0,9.14914914914915,-0.1644937829523443,,
915,2.0,9.15915915915916,-0.0705857152097149,,
916,2.0,9.16916916916917,0.018705557225178,,
917,2.0,9.17917917917918,0.1120672157626719,,
918,2.0,9.18918918918919,0.2055020705511875,,
919,2.0,9.1991991991992,0.2884594752148247,,
920,2.0,9.20920920920921,0.3741459152539203,,
921,2.0,9.21921921921922,0.4472216399009469,,
922,2.0,9.22922922922923,0.5224795539400544,,
923,2.0,9.23923923923924,0.5805748366108241,,
924,2.0,9.24924924924925,0.6406142719233048,,
925,2.0,9.25925925925926,0.67699703299144,,
926,2.0,9.26926926926927,0.7214537156996645,,
927,2.0,9.27927927927928,0.7454919679995833,,
928,2.0,9.28928928928929,0.7742381592233983,,
929,2.0,9.2992992992993,0.7806643736716061,,
930,2.0,9.30930930930931,0.7895984522097554,,
931,2.0,9.31931931931932,0.7686026522177593,,
932,2.0,9.32932932932933,0.7561604089637579,,
933,2.0,9.33933933933934,0.722128735681622,,
934,2.0,9.34934934934935,0.7017555591195717,,
935,2.0,9.35935935935936,0.66453984681322,,
936,2.0,9.36936936936937,0.6240290538162382,,
937,2.0,9.37937937937938,0.5797680449550805,,
938,2.0,9.38938938938939,0.5345170731022538,,
939,2.0,9.3993993993994,0.4770181173589785,,
940,2.0,9.40940940940941,0.4425204442013309,,
941,2.0,9.41941941941942,0.3711136454957319,,
942,2.0,9.42942942942943,0.3340029208102104,,
943,2.0,9.43943943943944,0.2950981455236765,,
944,2.0,9.44944944944945,0.2325636579865236,,
945,2.0,9.45945945945946,0.1977207764463026,,
946,2.0,9.46946946946947,0.1513363186745479,,
947,2.0,9.47947947947948,0.1224911556972525,,
948,2.0,9.48948948948949,0.0905558516930153,,
949,2.0,9.4994994994995,0.0684143344269161,,
950,2.0,9.50950950950951,0.0382793742081551,,
951,2.0,9.51951951951952,0.0273633012827787,,
952,2.0,9.52952952952953,0.0094166958373891,,
953,2.0,9.53953953953954,0.0133690006956434,,
954,2.0,9.54954954954955,0.0106679160722648,,
955,2.0,9.55955955955956,0.002613291762222,,
956,2.0,9.56956956956957,-0.0070462259093841,,
957,2.0,9.57957957957958,0.0009622639152511,,
958,2.0,9.58958958958959,-0.0054791187664483,,
959,2.0,9.5995995995996,-0.0013167695306142,,
960,2.0,9.60960960960961,-0.0005949706200452,,
961,2.0,9.61961961961962,-0.005921962150038,,
962,2.0,9.62962962962963,-0.002668551115919,,
963,2.0,9.63963963963964,-0.0215232588095044,,
964,2.0,9.64964964964965,-0.0299983929823542,,
965,2.0,9.65965965965966,-0.0559445223479784,,
966,2.0,9.66966966966967,-0.0758266027625123,,
967,2.0,9.67967967967968,-0.0943062173612862,,
968,2.0,9.68968968968969,-0.1289778986138889,,
969,2.0,9.6996996996997,-0.1644234715435096,,
970,2.0,9.70970970970971,-0.2018597595286052,,
971,2.0,9.71971971971972,-0.2500028619839229,,
972,2.0,9.72972972972973,-0.3047868072177911,,
973,2.0,9.73973973973974,-0.3475871864535768,,
974,2.0,9.74974974974975,-0.4047614304647101,,
975,2.0,9.75975975975976,-0.4526114909302681,,
976,2.0,9.76976976976977,-0.4917578887448319,,
977,2.0,9.77977977977978,-0.5504228729138564,,
978,2.0,9.78978978978979,-0.5999334149558679,,
979,2.0,9.7997997997998,-0.6339343532776428,,
980,2.0,9.80980980980981,-0.6715548806022028,,
981,2.0,9.81981981981982,-0.7039087206571741,,
982,2.0,9.82982982982983,-0.7358488019049051,,
983,2.0,9.83983983983984,-0.7564806850602345,,
984,2.0,9.84984984984985,-0.7592799137355156,,
985,2.0,9.85985985985986,-0.7840779180636713,,
986,2.0,9.86986986986987,-0.7700656092564159,,
987,2.0,9.87987987987988,-0.7647943488402607,,
988,2.0,9.88988988988989,-0.7385812205430929,,
989,2.0,9.8998998998999,-0.705509334977607,,
990,2.0,9.90990990990991,-0.668501888736226,,
991,2.0,9.91991991991992,-0.6227733080939518,,
992,2.0,9.92992992992993,-0.5639163487603303,,
993,2.0,9.93993993993994,-0.5004138073102192,,
994,2.0,9.94994994994995,-0.4306141891501873,,
995,2.0,9.95995995995996,-0.347378824694999,,
996,2.0,9.96996996996997,-0.2713529541784636,,
997,2.0,9.97997997997998,-0.1734946693172169,,
998,2.0,9.98998998998999,-0.0827308604825753,,
999,2.0,10.0,0.0096153552533086,,
0,,,,71.0,37.98588026
1,,,,87.0,63.99203399
2,,,,65.0,87.45502852
3,,,,76.0,59.90844847
4,,,,93.0,60.70464529
5,,,,75.0,31.85818104
6,,,,98.0,27.55325512
7,,,,68.0,88.21327519
8,,,,86.0,46.05414594
9,,,,61.0,90.14936228
10,,,,79.0,40.73856427
11,,,,91.0,63.75629742
12,,,,86.0,76.43595811
13,,,,65.0,88.12241627
14,,,,90.0,59.40902284
15,,,,80.0,90.7207735
16,,,,86.0,20.09507654
17,,,,92.0,37.07977298
18,,,,66.0,97.32098137
19,,,,67.0,99.56933584
