,Subject_ID,Time,PPG,HR,HRV
0,4.0,0.0,0.0005859808002,,
1,4.0,0.01001001001001,0.0932345884921807,,
2,4.0,0.02002002002002,0.173425890709958,,
3,4.0,0.03003003003003,0.2666822298830146,,
4,4.0,0.04004004004004,0.344175002408146,,
5,4.0,0.05005005005005,0.4184965393564221,,
6,4.0,0.06006006006006,0.4943756294428813,,
7,4.0,0.07007007007007,0.5696704946952941,,
8,4.0,0.08008008008008,0.6187368438914249,,
9,4.0,0.09009009009009,0.6701966219811726,,
10,4.0,0.1001001001001,0.7011513891596219,,
11,4.0,0.1101101101101101,0.7450238738571603,,
12,4.0,0.1201201201201201,0.7678716730416011,,
13,4.0,0.1301301301301301,0.7715900591387957,,
14,4.0,0.1401401401401401,0.7794132137856615,,
15,4.0,0.1501501501501501,0.7754580143830052,,
16,4.0,0.1601601601601601,0.7620125648591488,,
17,4.0,0.1701701701701701,0.7419901625741175,,
18,4.0,0.1801801801801801,0.7106146163616843,,
19,4.0,0.1901901901901901,0.6783433296889575,,
20,4.0,0.2002002002002001,0.643136028196975,,
21,4.0,0.2102102102102102,0.5990611859669431,,
22,4.0,0.2202202202202202,0.544490788487889,,
23,4.0,0.2302302302302302,0.4915602418930075,,
24,4.0,0.2402402402402402,0.440710625714913,,
25,4.0,0.2502502502502503,0.383860084776356,,
26,4.0,0.2602602602602603,0.3416864939217718,,
27,4.0,0.2702702702702703,0.297543385858644,,
28,4.0,0.2802802802802803,0.2452919642944424,,
29,4.0,0.2902902902902903,0.2052295767918591,,
30,4.0,0.3003003003003003,0.1597644809074414,,
31,4.0,0.3103103103103103,0.1298810156216089,,
32,4.0,0.3203203203203203,0.0898440746838168,,
33,4.0,0.3303303303303303,0.0805329316323681,,
34,4.0,0.3403403403403403,0.059703059075217,,
35,4.0,0.3503503503503503,0.0397199086933811,,
36,4.0,0.3603603603603603,0.0268479367227685,,
37,4.0,0.3703703703703703,0.0127095257478407,,
38,4.0,0.3803803803803803,0.0081848228707542,,
39,4.0,0.3903903903903903,-0.0028294400706102,,
40,4.0,0.4004004004004003,-0.0033033071556073,,
41,4.0,0.4104104104104104,0.0025196773858288,,
42,4.0,0.4204204204204204,0.0006291045589363,,
43,4.0,0.4304304304304304,-1.2003629775401872e-05,,
44,4.0,0.4404404404404404,-0.0067309576930311,,
45,4.0,0.4504504504504504,-0.0072858592236824,,
46,4.0,0.4604604604604604,-0.0186890184237321,,
47,4.0,0.4704704704704704,-0.0175391233633436,,
48,4.0,0.4804804804804805,-0.0317025325229015,,
49,4.0,0.4904904904904905,-0.0496022219909158,,
50,4.0,0.5005005005005005,-0.062266320120172,,
51,4.0,0.5105105105105106,-0.0947991363649872,,
52,4.0,0.5205205205205206,-0.1242556758750412,,
53,4.0,0.5305305305305306,-0.1592139251664174,,
54,4.0,0.5405405405405406,-0.1997758248484056,,
55,4.0,0.5505505505505506,-0.2496382059436895,,
56,4.0,0.5605605605605606,-0.2764104347898612,,
57,4.0,0.5705705705705706,-0.3333944176790921,,
58,4.0,0.5805805805805806,-0.387317850831217,,
59,4.0,0.5905905905905906,-0.4310103479489534,,
60,4.0,0.6006006006006006,-0.478005562856709,,
61,4.0,0.6106106106106106,-0.5342886060356249,,
62,4.0,0.6206206206206206,-0.5747116619886967,,
63,4.0,0.6306306306306306,-0.6292403235857095,,
64,4.0,0.6406406406406406,-0.6719772509436428,,
65,4.0,0.6506506506506506,-0.6957177099145762,,
66,4.0,0.6606606606606606,-0.73865476579843,,
67,4.0,0.6706706706706707,-0.7488254735404318,,
68,4.0,0.6806806806806807,-0.7739859759671549,,
69,4.0,0.6906906906906907,-0.7818711852714028,,
70,4.0,0.7007007007007007,-0.7744637791112257,,
71,4.0,0.7107107107107107,-0.769271354256561,,
72,4.0,0.7207207207207207,-0.7576217666567276,,
73,4.0,0.7307307307307307,-0.7082095446216168,,
74,4.0,0.7407407407407407,-0.6774982671192024,,
75,4.0,0.7507507507507507,-0.6283381972985247,,
76,4.0,0.7607607607607607,-0.5835838477933886,,
77,4.0,0.7707707707707707,-0.5183220306049672,,
78,4.0,0.7807807807807807,-0.4449349859577313,,
79,4.0,0.7907907907907907,-0.3591127474823205,,
80,4.0,0.8008008008008007,-0.2840666823041784,,
81,4.0,0.8108108108108109,-0.194821794650112,,
82,4.0,0.8208208208208209,-0.1102371951780237,,
83,4.0,0.8308308308308309,-0.0266875351193772,,
84,4.0,0.8408408408408409,0.066056984954973,,
85,4.0,0.8508508508508509,0.1551717970706028,,
86,4.0,0.8608608608608609,0.2523428020641228,,
87,4.0,0.8708708708708709,0.3263239991408685,,
88,4.0,0.8808808808808809,0.4114364861750585,,
89,4.0,0.8908908908908909,0.4914673578786419,,
90,4.0,0.9009009009009008,0.5487108329634198,,
91,4.0,0.9109109109109108,0.5961006710879869,,
92,4.0,0.9209209209209208,0.6599187399391978,,
93,4.0,0.9309309309309308,0.6937769269027665,,
94,4.0,0.9409409409409408,0.738038996455642,,
95,4.0,0.950950950950951,0.7652574480660832,,
96,4.0,0.960960960960961,0.7716566196930515,,
97,4.0,0.970970970970971,0.7813416675420449,,
98,4.0,0.980980980980981,0.7773785453699541,,
99,4.0,0.990990990990991,0.7645924677994691,,
100,4.0,1.001001001001001,0.7414045425687749,,
101,4.0,1.011011011011011,0.7244564587250499,,
102,4.0,1.021021021021021,0.6901436185964069,,
103,4.0,1.031031031031031,0.6520556190331894,,
104,4.0,1.0410410410410411,0.5917656381080085,,
105,4.0,1.0510510510510511,0.5537149630863696,,
106,4.0,1.0610610610610611,0.5040488129699721,,
107,4.0,1.0710710710710711,0.4456653051188395,,
108,4.0,1.0810810810810811,0.4099546724348555,,
109,4.0,1.0910910910910911,0.353231190734049,,
110,4.0,1.1011011011011012,0.3045983943011172,,
111,4.0,1.1111111111111112,0.2555695551355154,,
112,4.0,1.1211211211211212,0.2181216930000055,,
113,4.0,1.1311311311311312,0.1713367046020804,,
114,4.0,1.1411411411411412,0.1346767869870401,,
115,4.0,1.1511511511511512,0.1008051873536629,,
116,4.0,1.1611611611611612,0.0840587663391903,,
117,4.0,1.1711711711711712,0.0576407410296223,,
118,4.0,1.1811811811811812,0.0376661456541329,,
119,4.0,1.1911911911911912,0.0235203649458317,,
120,4.0,1.2012012012012012,0.0155008678171754,,
121,4.0,1.2112112112112112,0.005002824151065,,
122,4.0,1.2212212212212212,0.0002959677281053,,
123,4.0,1.2312312312312312,-0.0084111259307092,,
124,4.0,1.2412412412412412,-0.0002566046003595,,
125,4.0,1.2512512512512513,0.000552191338742,,
126,4.0,1.2612612612612613,0.0001532885202861,,
127,4.0,1.2712712712712713,0.0101436506451079,,
128,4.0,1.2812812812812813,-0.0045204448354136,,
129,4.0,1.2912912912912913,-0.0099140525551181,,
130,4.0,1.3013013013013013,-0.0222082281639721,,
131,4.0,1.3113113113113113,-0.0264391607592942,,
132,4.0,1.3213213213213213,-0.0584184880145193,,
133,4.0,1.3313313313313313,-0.0650844404412716,,
134,4.0,1.3413413413413413,-0.0831108616765421,,
135,4.0,1.351351351351351,-0.1082542458373915,,
136,4.0,1.361361361361361,-0.1456564742853733,,
137,4.0,1.371371371371371,-0.1872519010018377,,
138,4.0,1.3813813813813811,-0.2286494464480799,,
139,4.0,1.3913913913913911,-0.2714272845638735,,
140,4.0,1.4014014014014011,-0.3261859341175682,,
141,4.0,1.4114114114114114,-0.3716685790148193,,
142,4.0,1.4214214214214214,-0.415808625267465,,
143,4.0,1.4314314314314314,-0.4673390635868903,,
144,4.0,1.4414414414414414,-0.5181907000564538,,
145,4.0,1.4514514514514514,-0.5665147498935544,,
146,4.0,1.4614614614614614,-0.6249527592585289,,
147,4.0,1.4714714714714714,-0.6604225866635807,,
148,4.0,1.4814814814814814,-0.689999461083272,,
149,4.0,1.4914914914914914,-0.7267366073011171,,
150,4.0,1.5015015015015014,-0.7494449071942748,,
151,4.0,1.5115115115115114,-0.7674074583326782,,
152,4.0,1.5215215215215214,-0.7892209963148809,,
153,4.0,1.5315315315315314,-0.7780381469617321,,
154,4.0,1.5415415415415414,-0.7640139910907101,,
155,4.0,1.5515515515515514,-0.7601157146514685,,
156,4.0,1.5615615615615617,-0.7275595471055867,,
157,4.0,1.5715715715715717,-0.6952499236180064,,
158,4.0,1.5815815815815817,-0.648580858287721,,
159,4.0,1.5915915915915917,-0.5872538553893962,,
160,4.0,1.6016016016016017,-0.5391363784304009,,
161,4.0,1.6116116116116117,-0.4581507414236648,,
162,4.0,1.6216216216216215,-0.3939940772282529,,
163,4.0,1.6316316316316315,-0.3111105533174125,,
164,4.0,1.6416416416416415,-0.2242530205397173,,
165,4.0,1.6516516516516515,-0.1278640779133507,,
166,4.0,1.6616616616616615,-0.0432369130013511,,
167,4.0,1.6716716716716715,0.0458763850526565,,
168,4.0,1.6816816816816818,0.1379548172732257,,
169,4.0,1.6916916916916918,0.2218126008207216,,
170,4.0,1.7017017017017018,0.3028884439664138,,
171,4.0,1.7117117117117118,0.3945503900131208,,
172,4.0,1.7217217217217218,0.4580400641287266,,
173,4.0,1.7317317317317318,0.5229282405619744,,
174,4.0,1.7417417417417418,0.5839597181544677,,
175,4.0,1.7517517517517518,0.6485415711265029,,
176,4.0,1.7617617617617618,0.6930991077322121,,
177,4.0,1.7717717717717718,0.7232684610057849,,
178,4.0,1.7817817817817818,0.7514751400814293,,
179,4.0,1.7917917917917918,0.7697047826836063,,
180,4.0,1.8018018018018016,0.7693926990322463,,
181,4.0,1.811811811811812,0.7758507605921915,,
182,4.0,1.8218218218218216,0.7612043536315923,,
183,4.0,1.831831831831832,0.7481380919191639,,
184,4.0,1.8418418418418416,0.7298120523028516,,
185,4.0,1.851851851851852,0.6976433942009534,,
186,4.0,1.8618618618618616,0.6525488166798615,,
187,4.0,1.871871871871872,0.6152464976897565,,
188,4.0,1.8818818818818817,0.5741750087575962,,
189,4.0,1.891891891891892,0.5195788915433525,,
190,4.0,1.901901901901902,0.4754512551044662,,
191,4.0,1.911911911911912,0.4237150671126259,,
192,4.0,1.921921921921922,0.3662774093188406,,
193,4.0,1.931931931931932,0.3067049834569733,,
194,4.0,1.941941941941942,0.2762587226609164,,
195,4.0,1.951951951951952,0.2166739697831944,,
196,4.0,1.961961961961962,0.1833493724353156,,
197,4.0,1.971971971971972,0.1463964293112086,,
198,4.0,1.981981981981982,0.1197905018801948,,
199,4.0,1.991991991991992,0.082273392240792,,
200,4.0,2.002002002002002,0.0633741511808822,,
201,4.0,2.012012012012012,0.0445992882508651,,
202,4.0,2.022022022022022,0.0305318636566373,,
203,4.0,2.032032032032032,0.0298635836578813,,
204,4.0,2.042042042042042,0.00788247564729,,
205,4.0,2.052052052052052,0.0071862322186125,,
206,4.0,2.062062062062062,-0.0039127965750854,,
207,4.0,2.072072072072072,0.0060263828852341,,
208,4.0,2.0820820820820822,-0.0050447814863656,,
209,4.0,2.092092092092092,0.0128342354971482,,
210,4.0,2.1021021021021022,0.0069565230768704,,
211,4.0,2.112112112112112,-0.0073464168064945,,
212,4.0,2.1221221221221223,-0.0089873161082437,,
213,4.0,2.1321321321321323,-0.0162759673995614,,
214,4.0,2.1421421421421423,-0.0187170980912995,,
215,4.0,2.1521521521521523,-0.0276460839934222,,
216,4.0,2.1621621621621623,-0.0561736938461679,,
217,4.0,2.1721721721721723,-0.0754818079090811,,
218,4.0,2.1821821821821823,-0.1070192471910188,,
219,4.0,2.1921921921921923,-0.1345147706755041,,
220,4.0,2.2022022022022023,-0.1743201412607236,,
221,4.0,2.2122122122122123,-0.2222815641859035,,
222,4.0,2.2222222222222223,-0.2559848107922241,,
223,4.0,2.2322322322322323,-0.2993599333961723,,
224,4.0,2.2422422422422423,-0.3494254266005109,,
225,4.0,2.2522522522522523,-0.4036615326411075,,
226,4.0,2.2622622622622623,-0.4501843414388385,,
227,4.0,2.2722722722722724,-0.5025038313057991,,
228,4.0,2.2822822822822824,-0.5519328008228735,,
229,4.0,2.2922922922922924,-0.5984474758355433,,
230,4.0,2.3023023023023024,-0.6523516448027221,,
231,4.0,2.3123123123123124,-0.6870570643750511,,
232,4.0,2.3223223223223224,-0.7173935274751969,,
233,4.0,2.3323323323323324,-0.7264105400182751,,
234,4.0,2.3423423423423424,-0.766590174817892,,
235,4.0,2.3523523523523524,-0.7702262567472596,,
236,4.0,2.3623623623623624,-0.780942572021802,,
237,4.0,2.3723723723723724,-0.7686910021241563,,
238,4.0,2.3823823823823824,-0.7738631910887093,,
239,4.0,2.3923923923923924,-0.7291815935442091,,
240,4.0,2.4024024024024024,-0.7020672907581139,,
241,4.0,2.4124124124124124,-0.6584579107482633,,
242,4.0,2.4224224224224224,-0.6068434110734845,,
243,4.0,2.4324324324324325,-0.5391673155644441,,
244,4.0,2.4424424424424425,-0.4857396776063254,,
245,4.0,2.4524524524524525,-0.4064007136568946,,
246,4.0,2.4624624624624625,-0.3345384265948029,,
247,4.0,2.4724724724724725,-0.2481346150266309,,
248,4.0,2.4824824824824825,-0.1513042928893371,,
249,4.0,2.4924924924924925,-0.0671879672384305,,
250,4.0,2.5025025025025025,0.030239315942393,,
251,4.0,2.5125125125125125,0.1059867474590104,,
252,4.0,2.5225225225225225,0.1945729378857153,,
253,4.0,2.5325325325325325,0.2886538472858437,,
254,4.0,2.5425425425425425,0.3688325348168766,,
255,4.0,2.5525525525525525,0.4522392984548684,,
256,4.0,2.5625625625625625,0.5102674093585033,,
257,4.0,2.5725725725725725,0.5841769941880475,,
258,4.0,2.5825825825825826,0.6374992204931323,,
259,4.0,2.592592592592593,0.6803223062303566,,
260,4.0,2.6026026026026026,0.726933218920529,,
261,4.0,2.612612612612613,0.7467538874143478,,
262,4.0,2.6226226226226226,0.7689575159155787,,
263,4.0,2.6326326326326326,0.7782652769945034,,
264,4.0,2.6426426426426426,0.7841070196240365,,
265,4.0,2.6526526526526526,0.7678394605284641,,
266,4.0,2.6626626626626626,0.7545204353181608,,
267,4.0,2.6726726726726726,0.7404057208024165,,
268,4.0,2.6826826826826826,0.6967521898404377,,
269,4.0,2.6926926926926926,0.6647417960254504,,
270,4.0,2.702702702702702,0.624983500171498,,
271,4.0,2.7127127127127126,0.5818003600211133,,
272,4.0,2.722722722722722,0.5241172799194355,,
273,4.0,2.7327327327327327,0.4821455174204962,,
274,4.0,2.7427427427427427,0.427855634721292,,
275,4.0,2.7527527527527527,0.3786998221582028,,
276,4.0,2.7627627627627627,0.330113334992777,,
277,4.0,2.7727727727727727,0.2867871901494179,,
278,4.0,2.7827827827827827,0.2371830726394718,,
279,4.0,2.7927927927927927,0.1977275154166918,,
280,4.0,2.8028028028028027,0.1580693552095561,,
281,4.0,2.8128128128128127,0.1299716348440194,,
282,4.0,2.8228228228228227,0.0973056658217769,,
283,4.0,2.8328328328328327,0.0586304418131021,,
284,4.0,2.8428428428428427,0.0473675489836479,,
285,4.0,2.8528528528528527,0.025391162571984,,
286,4.0,2.8628628628628627,0.0133519609196093,,
287,4.0,2.8728728728728727,0.0124823930331914,,
288,4.0,2.8828828828828827,0.0061536377978709,,
289,4.0,2.8928928928928928,0.0025043171047262,,
290,4.0,2.9029029029029028,-0.0028219362988526,,
291,4.0,2.9129129129129128,0.0060684882622813,,
292,4.0,2.9229229229229228,0.0139013514089494,,
293,4.0,2.932932932932933,0.0015396074788118,,
294,4.0,2.942942942942943,-0.0037547653118124,,
295,4.0,2.952952952952953,-0.0072190340077701,,
296,4.0,2.962962962962963,-0.002697837272432,,
297,4.0,2.972972972972973,-0.0231276412662328,,
298,4.0,2.982982982982983,-0.0329760471316441,,
299,4.0,2.992992992992993,-0.0559606214796669,,
300,4.0,3.003003003003003,-0.0736470166982843,,
301,4.0,3.013013013013013,-0.0962693833078282,,
302,4.0,3.023023023023023,-0.1286840379237565,,
303,4.0,3.033033033033033,-0.1666029433908411,,
304,4.0,3.043043043043043,-0.2036103867220378,,
305,4.0,3.053053053053053,-0.254500409432623,,
306,4.0,3.063063063063063,-0.2830702597578803,,
307,4.0,3.073073073073073,-0.3385369293186092,,
308,4.0,3.083083083083083,-0.4011942104193047,,
309,4.0,3.093093093093093,-0.4522138269540822,,
310,4.0,3.103103103103103,-0.4939464298643183,,
311,4.0,3.113113113113113,-0.5451338300070223,,
312,4.0,3.123123123123123,-0.5965814133937332,,
313,4.0,3.133133133133133,-0.6357514385842381,,
314,4.0,3.143143143143143,-0.6685517861750635,,
315,4.0,3.153153153153153,-0.7088197974899818,,
316,4.0,3.163163163163163,-0.737155907845933,,
317,4.0,3.173173173173173,-0.7614663999565491,,
318,4.0,3.183183183183183,-0.771722081338009,,
319,4.0,3.193193193193193,-0.7777793737665986,,
320,4.0,3.203203203203203,-0.7758467682387873,,
321,4.0,3.2132132132132134,-0.7572684449035272,,
322,4.0,3.2232232232232234,-0.7361758081700842,,
323,4.0,3.2332332332332334,-0.710335216480733,,
324,4.0,3.2432432432432434,-0.6603621270231308,,
325,4.0,3.253253253253253,-0.6205319289580989,,
326,4.0,3.2632632632632634,-0.5638700239718064,,
327,4.0,3.273273273273273,-0.4936661765352031,,
328,4.0,3.2832832832832834,-0.4458393660968198,,
329,4.0,3.293293293293293,-0.3501637046084579,,
330,4.0,3.3033033033033035,-0.2657595788167938,,
331,4.0,3.313313313313313,-0.1717593022577168,,
332,4.0,3.3233233233233235,-0.0897248639988891,,
333,4.0,3.333333333333333,-0.0051312118210371,,
334,4.0,3.3433433433433435,0.087894851261446,,
335,4.0,3.353353353353353,0.1796994484576773,,
336,4.0,3.3633633633633635,0.2623712201149241,,
337,4.0,3.373373373373373,0.3450667061694674,,
338,4.0,3.3833833833833835,0.4288825883927647,,
339,4.0,3.393393393393393,0.5002575966470668,,
340,4.0,3.4034034034034035,0.5548540378021789,,
341,4.0,3.413413413413413,0.617124510447483,,
342,4.0,3.4234234234234235,0.6726805389511932,,
343,4.0,3.433433433433433,0.7162091657739723,,
344,4.0,3.443443443443444,0.7364909330521747,,
345,4.0,3.4534534534534536,0.7709308673902372,,
346,4.0,3.463463463463464,0.7695998135643223,,
347,4.0,3.4734734734734736,0.7870078336451415,,
348,4.0,3.483483483483484,0.7723840742161786,,
349,4.0,3.4934934934934936,0.762047589146505,,
350,4.0,3.503503503503504,0.7353431680716301,,
351,4.0,3.5135135135135136,0.7069776667239471,,
352,4.0,3.523523523523524,0.6712718331382422,,
353,4.0,3.5335335335335336,0.6381151494768165,,
354,4.0,3.543543543543544,0.5874708275927172,,
355,4.0,3.5535535535535536,0.5401141949346363,,
356,4.0,3.563563563563564,0.5004417271440583,,
357,4.0,3.5735735735735736,0.4453300860609918,,
358,4.0,3.583583583583584,0.3966086327544813,,
359,4.0,3.5935935935935936,0.3481866018870354,,
360,4.0,3.603603603603604,0.2949283866223786,,
361,4.0,3.6136136136136137,0.2418402791291127,,
362,4.0,3.623623623623624,0.1994736234439318,,
363,4.0,3.6336336336336337,0.1671358196082826,,
364,4.0,3.643643643643644,0.125562590512508,,
365,4.0,3.6536536536536537,0.0938410498772814,,
366,4.0,3.663663663663664,0.0668598347891669,,
367,4.0,3.6736736736736737,0.067012203491798,,
368,4.0,3.683683683683684,0.0308591972723684,,
369,4.0,3.6936936936936937,0.0195216792762947,,
370,4.0,3.703703703703704,0.016890649863645,,
371,4.0,3.7137137137137137,-0.0031339149629697,,
372,4.0,3.723723723723724,0.0059247839455354,,
373,4.0,3.7337337337337337,0.0032752879728319,,
374,4.0,3.743743743743744,0.0027399638378438,,
375,4.0,3.7537537537537538,-0.0079100568763396,,
376,4.0,3.763763763763764,0.0016188066758818,,
377,4.0,3.7737737737737738,-9.938482152411772e-05,,
378,4.0,3.783783783783784,-0.005269832567389,,
379,4.0,3.793793793793794,-0.0045277452713466,,
380,4.0,3.803803803803804,-0.007769037889346,,
381,4.0,3.813813813813814,-0.0293093343134543,,
382,4.0,3.823823823823824,-0.0474561000795967,,
383,4.0,3.833833833833834,-0.0652894681591435,,
384,4.0,3.843843843843844,-0.0972046037496179,,
385,4.0,3.853853853853854,-0.1165927495465396,,
386,4.0,3.863863863863864,-0.1585027157432642,,
387,4.0,3.873873873873874,-0.1870778934717913,,
388,4.0,3.883883883883884,-0.2283938433493494,,
389,4.0,3.893893893893894,-0.2767730739514706,,
390,4.0,3.903903903903904,-0.3257033482035706,,
391,4.0,3.913913913913914,-0.3852311640348024,,
392,4.0,3.923923923923924,-0.4269493039392587,,
393,4.0,3.933933933933934,-0.4835710903495185,,
394,4.0,3.943943943943944,-0.536623037324275,,
395,4.0,3.953953953953954,-0.5692618063757104,,
396,4.0,3.963963963963964,-0.6185097205907113,,
397,4.0,3.973973973973974,-0.6742430003045107,,
398,4.0,3.983983983983984,-0.7090628831557151,,
399,4.0,3.993993993993994,-0.7321205596985778,,
400,4.0,4.004004004004004,-0.7571333286360274,,
401,4.0,4.014014014014014,-0.7672013788190722,,
402,4.0,4.024024024024024,-0.7775254748209844,,
403,4.0,4.034034034034034,-0.7755088363912029,,
404,4.0,4.044044044044044,-0.7621748509045447,,
405,4.0,4.054054054054054,-0.7525328729453944,,
406,4.0,4.064064064064064,-0.7213953165972371,,
407,4.0,4.074074074074074,-0.6810381433160516,,
408,4.0,4.084084084084084,-0.6316038124643144,,
409,4.0,4.094094094094094,-0.5813326626032334,,
410,4.0,4.104104104104104,-0.5112151113753514,,
411,4.0,4.114114114114114,-0.4450574834226062,,
412,4.0,4.124124124124124,-0.3814239996446193,,
413,4.0,4.134134134134134,-0.2866130141933015,,
414,4.0,4.144144144144144,-0.2083371090120219,,
415,4.0,4.1541541541541545,-0.1181594882900045,,
416,4.0,4.1641641641641645,-0.0137552581564371,,
417,4.0,4.174174174174175,0.058453904904046,,
418,4.0,4.1841841841841845,0.1516944711004089,,
419,4.0,4.1941941941941945,0.2405012352500172,,
420,4.0,4.2042042042042045,0.3231563986367681,,
421,4.0,4.214214214214215,0.4074229680403987,,
422,4.0,4.2242242242242245,0.4888008179533937,,
423,4.0,4.2342342342342345,0.54739057703512,,
424,4.0,4.2442442442442445,0.6104535454165313,,
425,4.0,4.254254254254255,0.6578300242519874,,
426,4.0,4.2642642642642645,0.6941554694586908,,
427,4.0,4.2742742742742745,0.7314508796604551,,
428,4.0,4.2842842842842845,0.7589623378630961,,
429,4.0,4.294294294294295,0.77504433813631,,
430,4.0,4.3043043043043046,0.7825719956474761,,
431,4.0,4.314314314314315,0.7766446168537988,,
432,4.0,4.324324324324325,0.7612906954922556,,
433,4.0,4.334334334334335,0.7445883775537862,,
434,4.0,4.344344344344345,0.7215972605771334,,
435,4.0,4.354354354354355,0.6936989292774113,,
436,4.0,4.364364364364365,0.6450373503855235,,
437,4.0,4.374374374374375,0.6036021772498222,,
438,4.0,4.384384384384385,0.5599476615727002,,
439,4.0,4.394394394394395,0.5040585084407769,,
440,4.0,4.404404404404405,0.4591430494751165,,
441,4.0,4.414414414414415,0.4037525387956394,,
442,4.0,4.424424424424425,0.3570510198353714,,
443,4.0,4.434434434434435,0.3096169266710207,,
444,4.0,4.444444444444445,0.2555017688171549,,
445,4.0,4.454454454454455,0.2154773964929282,,
446,4.0,4.464464464464465,0.1764269034926822,,
447,4.0,4.474474474474475,0.135458166835952,,
448,4.0,4.484484484484485,0.1098021945862353,,
449,4.0,4.494494494494495,0.0806413443210806,,
450,4.0,4.504504504504505,0.050531241609565,,
451,4.0,4.514514514514515,0.0394092387818205,,
452,4.0,4.524524524524525,0.0242071904413726,,
453,4.0,4.534534534534535,0.0177875086737191,,
454,4.0,4.544544544544545,-0.0005857357228285,,
455,4.0,4.554554554554555,0.012541469903299,,
456,4.0,4.564564564564565,-0.0064667555003263,,
457,4.0,4.574574574574575,0.0003842730477592,,
458,4.0,4.584584584584585,-0.0046678508607565,,
459,4.0,4.594594594594595,-0.0024008127305926,,
460,4.0,4.604604604604605,0.00118089103876,,
461,4.0,4.614614614614615,-0.0053762925638659,,
462,4.0,4.624624624624625,-0.0128778226969634,,
463,4.0,4.634634634634635,-0.0151784462956579,,
464,4.0,4.644644644644645,-0.0232007434301564,,
465,4.0,4.654654654654655,-0.0495018063324553,,
466,4.0,4.664664664664665,-0.0674955831798568,,
467,4.0,4.674674674674675,-0.0846835077082998,,
468,4.0,4.684684684684685,-0.1116888444141515,,
469,4.0,4.694694694694695,-0.1448184731705928,,
470,4.0,4.704704704704705,-0.1860782652000357,,
471,4.0,4.714714714714715,-0.226873495284538,,
472,4.0,4.724724724724725,-0.2715601238927013,,
473,4.0,4.734734734734735,-0.3206633862684369,,
474,4.0,4.744744744744745,-0.3691685279156141,,
475,4.0,4.754754754754755,-0.4216507931743255,,
476,4.0,4.764764764764765,-0.4795728914985127,,
477,4.0,4.774774774774775,-0.5231211902039122,,
478,4.0,4.784784784784785,-0.5632282633938982,,
479,4.0,4.794794794794795,-0.6189554826978567,,
480,4.0,4.804804804804805,-0.6674340906306582,,
481,4.0,4.814814814814815,-0.6998719493956023,,
482,4.0,4.824824824824825,-0.7202701107594625,,
483,4.0,4.834834834834835,-0.7453815427400282,,
484,4.0,4.844844844844845,-0.7740626167996576,,
485,4.0,4.854854854854855,-0.7798274948583387,,
486,4.0,4.864864864864865,-0.7824759531896732,,
487,4.0,4.874874874874875,-0.7641349174844253,,
488,4.0,4.884884884884885,-0.7472812822893796,,
489,4.0,4.894894894894895,-0.7244308769338832,,
490,4.0,4.904904904904905,-0.6909000357663196,,
491,4.0,4.914914914914915,-0.6483623616993583,,
492,4.0,4.924924924924925,-0.5930488098521765,,
493,4.0,4.934934934934935,-0.5228143794851248,,
494,4.0,4.944944944944945,-0.4624633294900674,,
495,4.0,4.954954954954955,-0.3922547029395755,,
496,4.0,4.964964964964965,-0.3092230215085332,,
497,4.0,4.974974974974975,-0.2211077897156073,,
498,4.0,4.984984984984985,-0.1349174161069243,,
499,4.0,4.994994994994995,-0.0469583346715188,,
500,4.0,5.005005005005005,0.0436934534677971,,
501,4.0,5.015015015015015,0.1335019121233054,,
502,4.0,5.025025025025025,0.2267111597757908,,
503,4.0,5.035035035035035,0.3067921793585431,,
504,4.0,5.045045045045045,0.3964412105809816,,
505,4.0,5.055055055055055,0.4663310196786555,,
506,4.0,5.065065065065065,0.5317311366642068,,
507,4.0,5.075075075075075,0.5950007955119482,,
508,4.0,5.085085085085085,0.6509703116223048,,
509,4.0,5.095095095095095,0.6984403824621626,,
510,4.0,5.105105105105105,0.7225696822312555,,
511,4.0,5.115115115115115,0.7438448379031553,,
512,4.0,5.125125125125125,0.7759847424806215,,
513,4.0,5.135135135135135,0.7780458983719647,,
514,4.0,5.145145145145145,0.7712101414281451,,
515,4.0,5.155155155155155,0.7599733009876706,,
516,4.0,5.165165165165165,0.752161454148074,,
517,4.0,5.175175175175175,0.7269887677477163,,
518,4.0,5.185185185185185,0.6869209209610131,,
519,4.0,5.195195195195195,0.6546505700761988,,
520,4.0,5.205205205205205,0.6192263471750226,,
521,4.0,5.215215215215215,0.5669036767704853,,
522,4.0,5.225225225225225,0.5127894267011109,,
523,4.0,5.235235235235235,0.4687225797586534,,
524,4.0,5.245245245245245,0.4290707517126595,,
525,4.0,5.255255255255255,0.3633943740868154,,
526,4.0,5.265265265265265,0.319955124139357,,
527,4.0,5.275275275275275,0.2802781334916852,,
528,4.0,5.285285285285285,0.2241732889310952,,
529,4.0,5.295295295295295,0.1773091641651713,,
530,4.0,5.305305305305305,0.147868008138037,,
531,4.0,5.315315315315315,0.117202881326573,,
532,4.0,5.325325325325325,0.0878924851701399,,
533,4.0,5.335335335335335,0.0660011420950055,,
534,4.0,5.345345345345345,0.0408708969572197,,
535,4.0,5.355355355355355,0.0283211019050905,,
536,4.0,5.365365365365365,0.0127982503578667,,
537,4.0,5.375375375375375,0.0142919755399542,,
538,4.0,5.385385385385385,0.0024863251785035,,
539,4.0,5.395395395395395,0.0014598782853128,,
540,4.0,5.405405405405405,0.0005388359879653,,
541,4.0,5.415415415415415,-0.0009056466476974,,
542,4.0,5.425425425425425,-0.0076278479475642,,
543,4.0,5.435435435435435,0.008082275471854,,
544,4.0,5.445445445445445,0.0030513613198058,,
545,4.0,5.455455455455455,-0.0126327832218974,,
546,4.0,5.465465465465465,-0.0199659193214356,,
547,4.0,5.475475475475475,-0.0284820680368489,,
548,4.0,5.485485485485485,-0.0304986681514522,,
549,4.0,5.495495495495495,-0.0546898929426871,,
550,4.0,5.505505505505505,-0.08008978828311,,
551,4.0,5.515515515515515,-0.1133041776976944,,
552,4.0,5.525525525525525,-0.1433765143848635,,
553,4.0,5.535535535535535,-0.1824172499458989,,
554,4.0,5.545545545545545,-0.2165772832411772,,
555,4.0,5.555555555555555,-0.2514404102020893,,
556,4.0,5.565565565565565,-0.2961879570640428,,
557,4.0,5.575575575575575,-0.3564129890502495,,
558,4.0,5.585585585585585,-0.4097510854287343,,
559,4.0,5.595595595595595,-0.4576936461041913,,
560,4.0,5.605605605605605,-0.503927570497868,,
561,4.0,5.615615615615615,-0.5614111137777484,,
562,4.0,5.625625625625625,-0.6116381438294773,,
563,4.0,5.635635635635635,-0.6471439880653364,,
564,4.0,5.645645645645645,-0.6810457643455161,,
565,4.0,5.655655655655655,-0.7203812347270875,,
566,4.0,5.665665665665665,-0.7440645019664517,,
567,4.0,5.675675675675675,-0.7675967038547172,,
568,4.0,5.685685685685685,-0.7877943655796797,,
569,4.0,5.695695695695696,-0.7923481527069648,,
570,4.0,5.7057057057057055,-0.7813089006661257,,
571,4.0,5.715715715715716,-0.7576580193688577,,
572,4.0,5.7257257257257255,-0.7382120794059288,,
573,4.0,5.735735735735736,-0.6966990270601053,,
574,4.0,5.7457457457457455,-0.6578427483701834,,
575,4.0,5.755755755755756,-0.6033930990693239,,
576,4.0,5.7657657657657655,-0.5465975875168971,,
577,4.0,5.775775775775776,-0.4751594135148363,,
578,4.0,5.7857857857857855,-0.405765972400445,,
579,4.0,5.795795795795796,-0.3236151198394055,,
580,4.0,5.8058058058058055,-0.2450356183930659,,
581,4.0,5.815815815815816,-0.1629857576308746,,
582,4.0,5.8258258258258255,-0.0690784972054052,,
583,4.0,5.835835835835836,0.0228568100968844,,
584,4.0,5.8458458458458455,0.111128905871504,,
585,4.0,5.855855855855856,0.2048080603475517,,
586,4.0,5.865865865865866,0.2865403103182917,,
587,4.0,5.875875875875876,0.3652382352777641,,
588,4.0,5.885885885885886,0.4403576106966492,,
589,4.0,5.895895895895896,0.5183257196815133,,
590,4.0,5.905905905905906,0.5724552060676203,,
591,4.0,5.915915915915916,0.636594440831054,,
592,4.0,5.925925925925926,0.6805713133203437,,
593,4.0,5.935935935935936,0.7135784112433455,,
594,4.0,5.945945945945946,0.7544561501174134,,
595,4.0,5.955955955955956,0.7719929118729291,,
596,4.0,5.965965965965966,0.774069610948487,,
597,4.0,5.975975975975976,0.7694678958168507,,
598,4.0,5.985985985985986,0.7606703408911157,,
599,4.0,5.995995995995996,0.7535962335395437,,
600,4.0,6.006006006006006,0.727715140468658,,
601,4.0,6.016016016016016,0.7045765903213673,,
602,4.0,6.026026026026026,0.6605942245092736,,
603,4.0,6.036036036036036,0.6247176780627167,,
604,4.0,6.046046046046046,0.5795261767055706,,
605,4.0,6.056056056056056,0.5384454132800347,,
606,4.0,6.066066066066066,0.4849954968401616,,
607,4.0,6.076076076076076,0.4334101978256383,,
608,4.0,6.086086086086086,0.378267575189635,,
609,4.0,6.096096096096096,0.3423731787039203,,
610,4.0,6.106106106106106,0.2773497761883703,,
611,4.0,6.116116116116116,0.2366908106328759,,
612,4.0,6.126126126126126,0.1889449385055884,,
613,4.0,6.136136136136136,0.1583973003382995,,
614,4.0,6.146146146146146,0.1201322414058618,,
615,4.0,6.156156156156156,0.0862933215769553,,
616,4.0,6.166166166166166,0.0730508503245679,,
617,4.0,6.176176176176176,0.0478632066574852,,
618,4.0,6.186186186186186,0.0328069636195306,,
619,4.0,6.196196196196196,0.0195589135295089,,
620,4.0,6.206206206206206,0.0111518947862778,,
621,4.0,6.216216216216216,0.0013480380632873,,
622,4.0,6.226226226226226,-0.005400781614651,,
623,4.0,6.236236236236236,0.0057659511358026,,
624,4.0,6.246246246246246,-0.006280405664763,,
625,4.0,6.256256256256256,0.0006197567859285,,
626,4.0,6.266266266266266,-0.0003238357927581,,
627,4.0,6.276276276276276,-0.0004785656689843,,
628,4.0,6.286286286286286,-0.0053286953816947,,
629,4.0,6.296296296296296,-0.0168228756241093,,
630,4.0,6.306306306306306,-0.0193601188419835,,
631,4.0,6.316316316316316,-0.0258997594645296,,
632,4.0,6.326326326326326,-0.0600018742450806,,
633,4.0,6.336336336336336,-0.0711071777388951,,
634,4.0,6.346346346346346,-0.0979384129599356,,
635,4.0,6.356356356356356,-0.1328174800927797,,
636,4.0,6.366366366366366,-0.1613851351507209,,
637,4.0,6.376376376376376,-0.2160604409749275,,
638,4.0,6.386386386386386,-0.2484059101030064,,
639,4.0,6.396396396396396,-0.2986372463280344,,
640,4.0,6.406406406406406,-0.3434236902880151,,
641,4.0,6.416416416416417,-0.3985457452863078,,
642,4.0,6.426426426426427,-0.445334885464767,,
643,4.0,6.436436436436437,-0.4873209251435024,,
644,4.0,6.446446446446447,-0.5462157966086595,,
645,4.0,6.456456456456457,-0.6003249851969651,,
646,4.0,6.466466466466467,-0.6380187766816304,,
647,4.0,6.476476476476477,-0.6764390066512714,,
648,4.0,6.486486486486487,-0.7023961858384304,,
649,4.0,6.496496496496497,-0.7343061331860227,,
650,4.0,6.506506506506507,-0.7608612390757172,,
651,4.0,6.516516516516517,-0.7723106437469328,,
652,4.0,6.526526526526527,-0.784059502081495,,
653,4.0,6.536536536536537,-0.7720830930781901,,
654,4.0,6.546546546546547,-0.768773807704616,,
655,4.0,6.556556556556557,-0.7381702979526039,,
656,4.0,6.566566566566567,-0.7104900736162272,,
657,4.0,6.576576576576577,-0.6716729041672487,,
658,4.0,6.586586586586587,-0.6157425147584987,,
659,4.0,6.596596596596597,-0.5639441709046388,,
660,4.0,6.606606606606607,-0.496518171030578,,
661,4.0,6.616616616616617,-0.4267252010914831,,
662,4.0,6.626626626626627,-0.3480145897313756,,
663,4.0,6.636636636636637,-0.2686071383930836,,
664,4.0,6.646646646646647,-0.1781809874016656,,
665,4.0,6.656656656656657,-0.0919282841145789,,
666,4.0,6.666666666666667,-0.0001046479264117,,
667,4.0,6.676676676676677,0.0904341041536602,,
668,4.0,6.686686686686687,0.1793451252061427,,
669,4.0,6.696696696696697,0.2559043641050764,,
670,4.0,6.706706706706707,0.3486126387212195,,
671,4.0,6.716716716716717,0.4223937521615018,,
672,4.0,6.726726726726727,0.4989963364323246,,
673,4.0,6.736736736736737,0.5589652160339772,,
674,4.0,6.746746746746747,0.6179982381092161,,
675,4.0,6.756756756756757,0.669905457076689,,
676,4.0,6.766766766766767,0.7031705459630608,,
677,4.0,6.776776776776777,0.7390400243660066,,
678,4.0,6.786786786786787,0.7644756687894323,,
679,4.0,6.796796796796797,0.7743836652156576,,
680,4.0,6.806806806806807,0.7807103924728704,,
681,4.0,6.816816816816817,0.7760125064848811,,
682,4.0,6.826826826826827,0.7567286354528604,,
683,4.0,6.836836836836837,0.729954567040191,,
684,4.0,6.846846846846847,0.7132799630308514,,
685,4.0,6.856856856856857,0.6742585638347255,,
686,4.0,6.866866866866867,0.6473629548788626,,
687,4.0,6.876876876876877,0.5888071527796432,,
688,4.0,6.886886886886887,0.5374193775140446,,
689,4.0,6.896896896896897,0.4975608647821438,,
690,4.0,6.906906906906907,0.4441597972789101,,
691,4.0,6.916916916916917,0.3883251547282597,,
692,4.0,6.926926926926927,0.3489916198973681,,
693,4.0,6.936936936936937,0.2941099787615111,,
694,4.0,6.946946946946947,0.2543863619536599,,
695,4.0,6.956956956956957,0.197050504225071,,
696,4.0,6.966966966966967,0.1605489960878688,,
697,4.0,6.976976976976977,0.1282861736715239,,
698,4.0,6.986986986986987,0.113050653441437,,
699,4.0,6.996996996996997,0.0707745740727566,,
700,4.0,7.007007007007007,0.0505477229124589,,
701,4.0,7.017017017017017,0.0261903416890919,,
702,4.0,7.027027027027027,0.0262067731045065,,
703,4.0,7.037037037037037,0.0126844353496969,,
704,4.0,7.047047047047047,0.0068985019040634,,
705,4.0,7.057057057057057,0.0011492329643836,,
706,4.0,7.067067067067067,0.0006642457032571,,
707,4.0,7.077077077077077,0.0069094919554381,,
708,4.0,7.087087087087087,-0.0013254640907873,,
709,4.0,7.097097097097097,-0.0014667440106363,,
710,4.0,7.107107107107107,0.0031351979934717,,
711,4.0,7.117117117117117,-0.0073036943002908,,
712,4.0,7.127127127127127,-0.0142736272613571,,
713,4.0,7.137137137137137,-0.0110794075230748,,
714,4.0,7.147147147147147,-0.031849428480119,,
715,4.0,7.157157157157157,-0.0513354102719073,,
716,4.0,7.167167167167167,-0.0705512001377327,,
717,4.0,7.177177177177177,-0.0838897098144322,,
718,4.0,7.187187187187187,-0.1224417859463042,,
719,4.0,7.197197197197197,-0.1516212962948238,,
720,4.0,7.207207207207207,-0.2008206051276911,,
721,4.0,7.217217217217217,-0.233302637518575,,
722,4.0,7.227227227227227,-0.2854927400367519,,
723,4.0,7.237237237237237,-0.3308882655565616,,
724,4.0,7.247247247247247,-0.3818718070648607,,
725,4.0,7.257257257257257,-0.4312841997922842,,
726,4.0,7.267267267267267,-0.4841106308989407,,
727,4.0,7.277277277277277,-0.5313116065538913,,
728,4.0,7.287287287287287,-0.5830927040138681,,
729,4.0,7.297297297297297,-0.6291839802585577,,
730,4.0,7.307307307307307,-0.6613045982785617,,
731,4.0,7.317317317317317,-0.707287911263865,,
732,4.0,7.327327327327327,-0.7319472165254381,,
733,4.0,7.337337337337337,-0.7616565646203491,,
734,4.0,7.347347347347347,-0.7689702157178547,,
735,4.0,7.357357357357357,-0.7861896441706243,,
736,4.0,7.367367367367367,-0.775349260090901,,
737,4.0,7.377377377377377,-0.7709018258507849,,
738,4.0,7.387387387387387,-0.7525669187049525,,
739,4.0,7.397397397397397,-0.7141639465295307,,
740,4.0,7.407407407407407,-0.6823982914242062,,
741,4.0,7.4174174174174174,-0.6309150329104397,,
742,4.0,7.4274274274274275,-0.5713090123736914,,
743,4.0,7.437437437437437,-0.523024257996017,,
744,4.0,7.447447447447447,-0.451045141845819,,
745,4.0,7.4574574574574575,-0.3744409853965877,,
746,4.0,7.4674674674674675,-0.2894659294721941,,
747,4.0,7.477477477477477,-0.1902561753171419,,
748,4.0,7.487487487487487,-0.1143717195221361,,
749,4.0,7.4974974974974975,-0.0285110269880907,,
750,4.0,7.5075075075075075,0.0759168469448559,,
751,4.0,7.517517517517517,0.1571602448959523,,
752,4.0,7.527527527527527,0.242267766742094,,
753,4.0,7.5375375375375375,0.3256225139214219,,
754,4.0,7.5475475475475475,0.4105267588120047,,
755,4.0,7.557557557557557,0.4820267775088633,,
756,4.0,7.567567567567567,0.5465724588821201,,
757,4.0,7.5775775775775776,0.6065353840351655,,
758,4.0,7.587587587587588,0.6692428390754442,,
759,4.0,7.597597597597598,0.6953958933059192,,
760,4.0,7.607607607607608,0.7372645263206983,,
761,4.0,7.617617617617618,0.7709101795480969,,
762,4.0,7.627627627627628,0.7688469531698192,,
763,4.0,7.637637637637638,0.7798932212568868,,
764,4.0,7.647647647647648,0.7780706969589313,,
765,4.0,7.657657657657658,0.7579284604621097,,
766,4.0,7.667667667667668,0.746393003445914,,
767,4.0,7.677677677677678,0.7178466987276219,,
768,4.0,7.687687687687688,0.6835147241131099,,
769,4.0,7.697697697697698,0.6395473755069666,,
770,4.0,7.707707707707708,0.6092857528767976,,
771,4.0,7.717717717717718,0.5578344075252393,,
772,4.0,7.727727727727728,0.5058828924019585,,
773,4.0,7.737737737737738,0.4465278576153326,,
774,4.0,7.747747747747748,0.3979747494646214,,
775,4.0,7.757757757757758,0.3547972683416618,,
776,4.0,7.767767767767768,0.3064128264675395,,
777,4.0,7.777777777777778,0.2565369358610674,,
778,4.0,7.787787787787788,0.2121299088490635,,
779,4.0,7.797797797797798,0.1749302583546879,,
780,4.0,7.807807807807808,0.1351039881623092,,
781,4.0,7.817817817817818,0.1165766664584029,,
782,4.0,7.827827827827828,0.0844204804803381,,
783,4.0,7.837837837837838,0.0590339558915106,,
784,4.0,7.847847847847848,0.0316373361317293,,
785,4.0,7.857857857857858,0.032188687457642,,
786,4.0,7.867867867867868,0.0182130253624229,,
787,4.0,7.877877877877878,0.0119070598633801,,
788,4.0,7.887887887887888,0.0027235012487772,,
789,4.0,7.897897897897898,0.0084613519784726,,
790,4.0,7.907907907907908,-0.0013481661429169,,
791,4.0,7.917917917917918,0.0079115790951059,,
792,4.0,7.927927927927928,-0.0098629316743177,,
793,4.0,7.937937937937938,-0.0018207716914827,,
794,4.0,7.947947947947948,0.0034347424662545,,
795,4.0,7.957957957957958,-0.0126631011490618,,
796,4.0,7.967967967967968,-0.0181775339670325,,
797,4.0,7.977977977977978,-0.0303030625924776,,
798,4.0,7.987987987987988,-0.0448218021163344,,
799,4.0,7.997997997997998,-0.0648858269578768,,
800,4.0,8.008008008008009,-0.0950471061762067,,
801,4.0,8.018018018018019,-0.1095593813328745,,
802,4.0,8.028028028028029,-0.1522127868901095,,
803,4.0,8.038038038038039,-0.1932698688682889,,
804,4.0,8.048048048048049,-0.2341667110146976,,
805,4.0,8.058058058058059,-0.272586480478049,,
806,4.0,8.068068068068069,-0.307992058839762,,
807,4.0,8.078078078078079,-0.3676899209530112,,
808,4.0,8.088088088088089,-0.4175924590698041,,
809,4.0,8.098098098098099,-0.4732166408696972,,
810,4.0,8.108108108108109,-0.5279916113298351,,
811,4.0,8.118118118118119,-0.570751831617909,,
812,4.0,8.128128128128129,-0.6174864695416026,,
813,4.0,8.138138138138139,-0.6545045193071506,,
814,4.0,8.148148148148149,-0.692434137689955,,
815,4.0,8.158158158158159,-0.728360940910723,,
816,4.0,8.168168168168169,-0.761940525675181,,
817,4.0,8.178178178178179,-0.7749586196319816,,
818,4.0,8.188188188188189,-0.7840911680884595,,
819,4.0,8.198198198198199,-0.7799772567803835,,
820,4.0,8.208208208208209,-0.7702498009333731,,
821,4.0,8.218218218218219,-0.7526639921125621,,
822,4.0,8.228228228228229,-0.7330286796540126,,
823,4.0,8.238238238238239,-0.691426928004148,,
824,4.0,8.248248248248249,-0.6529794589573908,,
825,4.0,8.258258258258259,-0.6005524081918215,,
826,4.0,8.268268268268269,-0.5329865222028545,,
827,4.0,8.278278278278279,-0.4616581151996525,,
828,4.0,8.288288288288289,-0.3825922085877736,,
829,4.0,8.298298298298299,-0.2998335881938286,,
830,4.0,8.308308308308309,-0.2293136676050003,,
831,4.0,8.318318318318319,-0.1371467638302008,,
832,4.0,8.328328328328329,-0.0479099254138666,,
833,4.0,8.338338338338339,0.0496683256061973,,
834,4.0,8.348348348348349,0.1363393907776938,,
835,4.0,8.358358358358359,0.221777463182025,,
836,4.0,8.368368368368369,0.3104423632995622,,
837,4.0,8.378378378378379,0.3903147415313687,,
838,4.0,8.388388388388389,0.4685462727839244,,
839,4.0,8.398398398398399,0.5418624082113767,,
840,4.0,8.408408408408409,0.5886131201947625,,
841,4.0,8.418418418418419,0.6496431407598927,,
842,4.0,8.428428428428429,0.6970270525435404,,
843,4.0,8.438438438438439,0.7228051869963756,,
844,4.0,8.448448448448449,0.7461719692544676,,
845,4.0,8.458458458458459,0.7844226005711074,,
846,4.0,8.468468468468469,0.7784616248516018,,
847,4.0,8.478478478478479,0.7675933258410143,,
848,4.0,8.488488488488489,0.7705826208926781,,
849,4.0,8.498498498498499,0.7519395986756117,,
850,4.0,8.508508508508509,0.7141684478356117,,
851,4.0,8.518518518518519,0.6930843913391473,,
852,4.0,8.528528528528529,0.6638450653097056,,
853,4.0,8.538538538538539,0.6154383387371881,,
854,4.0,8.548548548548549,0.5621337689118697,,
855,4.0,8.558558558558559,0.5171256614671079,,
856,4.0,8.568568568568569,0.4780093350939916,,
857,4.0,8.578578578578579,0.4220635938311068,,
858,4.0,8.588588588588589,0.3646847125056826,,
859,4.0,8.598598598598599,0.3179909081935504,,
860,4.0,8.608608608608609,0.2736426005813239,,
861,4.0,8.618618618618619,0.2293790472712235,,
862,4.0,8.62862862862863,0.1907839235027068,,
863,4.0,8.63863863863864,0.1409410048350887,,
864,4.0,8.64864864864865,0.1126314453802954,,
865,4.0,8.65865865865866,0.0836499857215753,,
866,4.0,8.66866866866867,0.0712510659317132,,
867,4.0,8.67867867867868,0.051706312425925,,
868,4.0,8.68868868868869,0.0283978550278379,,
869,4.0,8.6986986986987,0.0175662612080201,,
870,4.0,8.70870870870871,0.0105642614233908,,
871,4.0,8.71871871871872,0.0003514481545695,,
872,4.0,8.72872872872873,-0.0037971571484199,,
873,4.0,8.73873873873874,0.0057862096276545,,
874,4.0,8.74874874874875,0.0056396976275152,,
875,4.0,8.75875875875876,-0.0054632764533879,,
876,4.0,8.76876876876877,-0.0016437724384895,,
877,4.0,8.77877877877878,0.0008479215692544,,
878,4.0,8.78878878878879,-0.0053899536910244,,
879,4.0,8.7987987987988,-0.0136759748141489,,
880,4.0,8.80880880880881,-0.0174493009143042,,
881,4.0,8.81881881881882,-0.0383714559013171,,
882,4.0,8.82882882882883,-0.0518029564640821,,
883,4.0,8.83883883883884,-0.0789422678436235,,
884,4.0,8.84884884884885,-0.0990349598205393,,
885,4.0,8.85885885885886,-0.1427647989584786,,
886,4.0,8.86886886886887,-0.1823600308531688,,
887,4.0,8.87887887887888,-0.2157993170829434,,
888,4.0,8.88888888888889,-0.2597571147830319,,
889,4.0,8.8988988988989,-0.3000674782057811,,
890,4.0,8.90890890890891,-0.3576172837140718,,
891,4.0,8.91891891891892,-0.4023024729898566,,
892,4.0,8.92892892892893,-0.4569269834546337,,
893,4.0,8.93893893893894,-0.5134978788394511,,
894,4.0,8.94894894894895,-0.5552024003312095,,
895,4.0,8.95895895895896,-0.5985402112318277,,
896,4.0,8.96896896896897,-0.6418612060623474,,
897,4.0,8.97897897897898,-0.6874158945758974,,
898,4.0,8.98898898898899,-0.7189417107563295,,
899,4.0,8.998998998999,-0.7532686870247955,,
900,4.0,9.00900900900901,-0.7688435678146892,,
901,4.0,9.01901901901902,-0.7708106406731294,,
902,4.0,9.02902902902903,-0.7860108621771383,,
903,4.0,9.03903903903904,-0.7808000486237096,,
904,4.0,9.04904904904905,-0.7585374392087071,,
905,4.0,9.05905905905906,-0.7355530143709837,,
906,4.0,9.06906906906907,-0.7104437164403631,,
907,4.0,9.07907907907908,-0.6554069311612736,,
908,4.0,9.08908908908909,-0.5999945730172405,,
909,4.0,9.0990990990991,-0.5451374847679659,,
910,4.0,9.10910910910911,-0.4830479449346152,,
911,4.0,9.11911911911912,-0.4072796094491739,,
912,4.0,9.12912912912913,-0.3315627858192831,,
913,4.0,9.13913913913914,-0.2407592472931906,,
914,4.0,9.14914914914915,-0.1585690164623376,,
915,4.0,9.15915915915916,-0.0610553299812685,,
916,4.0,9.16916916916917,0.0275128956753242,,
917,4.0,9.17917917917918,0.1103810447131918,,
918,4.0,9.18918918918919,0.1963411280653123,,
919,4.0,9.1991991991992,0.2839867887606601,,
920,4.0,9.20920920920921,0.3640768039080541,,
921,4.0,9.21921921921922,0.4467566930356234,,
922,4.0,9.22922922922923,0.5136377896860476,,
923,4.0,9.23923923923924,0.5837902162402197,,
924,4.0,9.24924924924925,0.6340520262011298,,
925,4.0,9.25925925925926,0.6839741029519061,,
926,4.0,9.26926926926927,0.721775203608726,,
927,4.0,9.27927927927928,0.7555058068737385,,
928,4.0,9.28928928928929,0.7668418138922853,,
929,4.0,9.2992992992993,0.7864372056753746,,
930,4.0,9.30930930930931,0.7824361293193073,,
931,4.0,9.31931931931932,0.7730754503634678,,
932,4.0,9.32932932932933,0.7572183905361024,,
933,4.0,9.33933933933934,0.7434138764935304,,
934,4.0,9.34934934934935,0.6987238443882527,,
935,4.0,9.35935935935936,0.6653556432006382,,
936,4.0,9.36936936936937,0.6310980049855601,,
937,4.0,9.37937937937938,0.5862849887652745,,
938,4.0,9.38938938938939,0.5322531821587655,,
939,4.0,9.3993993993994,0.4781259728156353,,
940,4.0,9.40940940940941,0.4357157330837491,,
941,4.0,9.41941941941942,0.3856349402403803,,
942,4.0,9.42942942942943,0.3249500767680573,,
943,4.0,9.43943943943944,0.27909877629441,,
944,4.0,9.44944944944945,0.2292809978369701,,
945,4.0,9.45945945945946,0.2016583053901087,,
946,4.0,9.46946946946947,0.1528779642196847,,
947,4.0,9.47947947947948,0.1243344953945854,,
948,4.0,9.48948948948949,0.096900488821574,,
949,4.0,9.4994994994995,0.0669940675345653,,
950,4.0,9.50950950950951,0.0475539595531748,,
951,4.0,9.51951951951952,0.0303830436408778,,
952,4.0,9.52952952952953,0.0134931150461624,,
953,4.0,9.53953953953954,0.0070449976945764,,
954,4.0,9.54954954954955,0.0008101697349186,,
955,4.0,9.55955955955956,0.003651442337738,,
956,4.0,9.56956956956957,0.0049399424529082,,
957,4.0,9.57957957957958,-0.0008407190730768,,
958,4.0,9.58958958958959,-0.0045008738329556,,
959,4.0,9.5995995995996,-0.0048511652889967,,
960,4.0,9.60960960960961,-0.0029886030221685,,
961,4.0,9.61961961961962,-0.0033484671807395,,
962,4.0,9.62962962962963,-0.0093755305509799,,
963,4.0,9.63963963963964,-0.0254416690874341,,
964,4.0,9.64964964964965,-0.0415997882264853,,
965,4.0,9.65965965965966,-0.0446606460484961,,
966,4.0,9.66966966966967,-0.0684605713511064,,
967,4.0,9.67967967967968,-0.1029946650442402,,
968,4.0,9.68968968968969,-0.1348155816641975,,
969,4.0,9.6996996996997,-0.1692279949712116,,
970,4.0,9.70970970970971,-0.2019542246302344,,
971,4.0,9.71971971971972,-0.2531406188252948,,
972,4.0,9.72972972972973,-0.2955800578891582,,
973,4.0,9.73973973973974,-0.3437843374427191,,
974,4.0,9.74974974974975,-0.3921365311033683,,
975,4.0,9.75975975975976,-0.4535265548207559,,
976,4.0,9.76976976976977,-0.4906057151385676,,
977,4.0,9.77977977977978,-0.5485832868437241,,
978,4.0,9.78978978978979,-0.5911328056380958,,
979,4.0,9.7997997997998,-0.6276519843611688,,
980,4.0,9.80980980980981,-0.6758824939830991,,
981,4.0,9.81981981981982,-0.7152297994768007,,
982,4.0,9.82982982982983,-0.7304189773592729,,
983,4.0,9.83983983983984,-0.7618419598088627,,
984,4.0,9.84984984984985,-0.7721767310315256,,
985,4.0,9.85985985985986,-0.7834283923264028,,
986,4.0,9.86986986986987,-0.7798555460406492,,
987,4.0,9.87987987987988,-0.7645728145251989,,
988,4.0,9.88988988988989,-0.7505755157864402,,
989,4.0,9.8998998998999,-0.7098537347651477,,
990,4.0,9.90990990990991,-0.6753016345060653,,
991,4.0,9.91991991991992,-0.6229902807808851,,
992,4.0,9.92992992992993,-0.5661894989089715,,
993,4.0,9.93993993993994,-0.5029777094720416,,
994,4.0,9.94994994994995,-0.4300099403479298,,
995,4.0,9.95995995995996,-0.3546381267608708,,
996,4.0,9.96996996996997,-0.2623855618816356,,
997,4.0,9.97997997997998,-0.1722661013939569,,
998,4.0,9.98998998998999,-0.0986891287709253,,
999,4.0,10.0,0.0067960110136051,,
0,,,,71.0,37.98588026
1,,,,87.0,63.99203399
2,,,,65.0,87.45502852
3,,,,76.0,59.90844847
4,,,,93.0,60.70464529
5,,,,75.0,31.85818104
6,,,,98.0,27.55325512
7,,,,68.0,88.21327519
8,,,,86.0,46.05414594
9,,,,61.0,90.14936228
10,,,,79.0,40.73856427
11,,,,91.0,63.75629742
12,,,,86.0,76.43595811
13,,,,65.0,88.12241627
14,,,,90.0,59.40902284
15,,,,80.0,90.7207735
16,,,,86.0,20.09507654
17,,,,92.0,37.07977298
18,,,,66.0,97.32098137
19,,,,67.0,99.56933584
