,Subject_ID,Time,PPG,HR,HRV
0,13.0,0.0,-0.0063171564835693,,
1,13.0,0.01001001001001,0.0858988412664947,,
2,13.0,0.02002002002002,0.1723826955936364,,
3,13.0,0.03003003003003,0.2706482282654391,,
4,13.0,0.04004004004004,0.3577905899385934,,
5,13.0,0.05005005005005,0.4305207687401332,,
6,13.0,0.06006006006006,0.5093590178548524,,
7,13.0,0.07007007007007,0.5609178640740506,,
8,13.0,0.08008008008008,0.6232596382795349,,
9,13.0,0.09009009009009,0.6683428712952172,,
10,13.0,0.1001001001001,0.7029615283433764,,
11,13.0,0.1101101101101101,0.7394116456659698,,
12,13.0,0.1201201201201201,0.7668231866024414,,
13,13.0,0.1301301301301301,0.7684691565751279,,
14,13.0,0.1401401401401401,0.7774759399756439,,
15,13.0,0.1501501501501501,0.7647419529602683,,
16,13.0,0.1601601601601601,0.7490411820628706,,
17,13.0,0.1701701701701701,0.742529937800005,,
18,13.0,0.1801801801801801,0.7132720225366553,,
19,13.0,0.1901901901901901,0.6755341877711643,,
20,13.0,0.2002002002002001,0.6363714463139184,,
21,13.0,0.2102102102102102,0.5897338974252893,,
22,13.0,0.2202202202202202,0.5412963308197609,,
23,13.0,0.2302302302302302,0.4997431390563706,,
24,13.0,0.2402402402402402,0.4332077925323497,,
25,13.0,0.2502502502502503,0.4003236228140281,,
26,13.0,0.2602602602602603,0.3426093107561933,,
27,13.0,0.2702702702702703,0.2828347679443521,,
28,13.0,0.2802802802802803,0.2524768756759468,,
29,13.0,0.2902902902902903,0.2018035955899967,,
30,13.0,0.3003003003003003,0.1562953501713706,,
31,13.0,0.3103103103103103,0.1294226042544602,,
32,13.0,0.3203203203203203,0.1103874165359846,,
33,13.0,0.3303303303303303,0.0690901564450512,,
34,13.0,0.3403403403403403,0.0527943770963469,,
35,13.0,0.3503503503503503,0.0427235388234963,,
36,13.0,0.3603603603603603,0.0166950354737199,,
37,13.0,0.3703703703703703,0.0148625740025721,,
38,13.0,0.3803803803803803,0.0036680285702467,,
39,13.0,0.3903903903903903,-0.0012574082301877,,
40,13.0,0.4004004004004003,0.0088371286356269,,
41,13.0,0.4104104104104104,0.0037250332129791,,
42,13.0,0.4204204204204204,-0.0019177381660688,,
43,13.0,0.4304304304304304,0.005069983072628,,
44,13.0,0.4404404404404404,0.0020939843805506,,
45,13.0,0.4504504504504504,-0.0143086941973831,,
46,13.0,0.4604604604604604,-0.0097995687113615,,
47,13.0,0.4704704704704704,-0.0197591938712278,,
48,13.0,0.4804804804804805,-0.030427713141416,,
49,13.0,0.4904904904904905,-0.0538838941498507,,
50,13.0,0.5005005005005005,-0.072695699721444,,
51,13.0,0.5105105105105106,-0.1061767527975977,,
52,13.0,0.5205205205205206,-0.1179938913440259,,
53,13.0,0.5305305305305306,-0.1565207297703867,,
54,13.0,0.5405405405405406,-0.1922682062201276,,
55,13.0,0.5505505505505506,-0.245110608687306,,
56,13.0,0.5605605605605606,-0.2830033606842826,,
57,13.0,0.5705705705705706,-0.3221336683651469,,
58,13.0,0.5805805805805806,-0.3739214419605833,,
59,13.0,0.5905905905905906,-0.4294834530159666,,
60,13.0,0.6006006006006006,-0.4885801108112516,,
61,13.0,0.6106106106106106,-0.5287220581188891,,
62,13.0,0.6206206206206206,-0.5806456575009094,,
63,13.0,0.6306306306306306,-0.6268554553481621,,
64,13.0,0.6406406406406406,-0.6690795901767306,,
65,13.0,0.6506506506506506,-0.6923598554282924,,
66,13.0,0.6606606606606606,-0.7298382973303749,,
67,13.0,0.6706706706706707,-0.7527558842067366,,
68,13.0,0.6806806806806807,-0.7758476046354685,,
69,13.0,0.6906906906906907,-0.779037924921726,,
70,13.0,0.7007007007007007,-0.7728530585518998,,
71,13.0,0.7107107107107107,-0.7639593553729482,,
72,13.0,0.7207207207207207,-0.7553805594033214,,
73,13.0,0.7307307307307307,-0.712446388451937,,
74,13.0,0.7407407407407407,-0.6796265763419084,,
75,13.0,0.7507507507507507,-0.6224751897874972,,
76,13.0,0.7607607607607607,-0.5734645189667446,,
77,13.0,0.7707707707707707,-0.5240652413553323,,
78,13.0,0.7807807807807807,-0.448183338177896,,
79,13.0,0.7907907907907907,-0.3670191609714009,,
80,13.0,0.8008008008008007,-0.2942590351132038,,
81,13.0,0.8108108108108109,-0.1996750114665766,,
82,13.0,0.8208208208208209,-0.1086594695248797,,
83,13.0,0.8308308308308309,-0.0216046860887083,,
84,13.0,0.8408408408408409,0.0664255259938084,,
85,13.0,0.8508508508508509,0.1591740330031912,,
86,13.0,0.8608608608608609,0.2499579028399852,,
87,13.0,0.8708708708708709,0.331664628017174,,
88,13.0,0.8808808808808809,0.4084872738219845,,
89,13.0,0.8908908908908909,0.4833018253749481,,
90,13.0,0.9009009009009008,0.5453508067443034,,
91,13.0,0.9109109109109108,0.6134325702027278,,
92,13.0,0.9209209209209208,0.6578257706485762,,
93,13.0,0.9309309309309308,0.6981793104908812,,
94,13.0,0.9409409409409408,0.7272442931196516,,
95,13.0,0.950950950950951,0.7496067601937318,,
96,13.0,0.960960960960961,0.7667827438984192,,
97,13.0,0.970970970970971,0.7858731025147841,,
98,13.0,0.980980980980981,0.7797247980502733,,
99,13.0,0.990990990990991,0.7674691278331399,,
100,13.0,1.001001001001001,0.742008643424997,,
101,13.0,1.011011011011011,0.7252487784508248,,
102,13.0,1.021021021021021,0.6808772765143084,,
103,13.0,1.031031031031031,0.648900938907252,,
104,13.0,1.0410410410410411,0.6017796265914239,,
105,13.0,1.0510510510510511,0.5583527559206919,,
106,13.0,1.0610610610610611,0.5080086202024751,,
107,13.0,1.0710710710710711,0.4561451146696793,,
108,13.0,1.0810810810810811,0.3995780167986416,,
109,13.0,1.0910910910910911,0.3567078471845685,,
110,13.0,1.1011011011011012,0.2996087535817411,,
111,13.0,1.1111111111111112,0.2600457958288393,,
112,13.0,1.1211211211211212,0.2154423543596222,,
113,13.0,1.1311311311311312,0.1767835319077494,,
114,13.0,1.1411411411411412,0.1363378800142421,,
115,13.0,1.1511511511511512,0.1085080955634589,,
116,13.0,1.1611611611611612,0.0811513705056044,,
117,13.0,1.1711711711711712,0.0619341584606396,,
118,13.0,1.1811811811811812,0.0495990578569713,,
119,13.0,1.1911911911911912,0.0284862931921898,,
120,13.0,1.2012012012012012,0.0169423822188151,,
121,13.0,1.2112112112112112,0.0162148807917801,,
122,13.0,1.2212212212212212,0.0011274807617067,,
123,13.0,1.2312312312312312,-0.0061935531928135,,
124,13.0,1.2412412412412412,0.0079122873089174,,
125,13.0,1.2512512512512513,0.0051674342340675,,
126,13.0,1.2612612612612613,-0.0060185020721134,,
127,13.0,1.2712712712712713,-0.0015296368098007,,
128,13.0,1.2812812812812813,0.0098632865294986,,
129,13.0,1.2912912912912913,-0.0038069776258957,,
130,13.0,1.3013013013013013,-0.0166354799652466,,
131,13.0,1.3113113113113113,-0.0234610487354983,,
132,13.0,1.3213213213213213,-0.0346370440076241,,
133,13.0,1.3313313313313313,-0.0553141943994934,,
134,13.0,1.3413413413413413,-0.093732284204888,,
135,13.0,1.351351351351351,-0.1106901813498303,,
136,13.0,1.361361361361361,-0.155399028268546,,
137,13.0,1.371371371371371,-0.1930964423769047,,
138,13.0,1.3813813813813811,-0.2267614042720957,,
139,13.0,1.3913913913913911,-0.2718577902354046,,
140,13.0,1.4014014014014011,-0.321956954852316,,
141,13.0,1.4114114114114114,-0.3652884033727623,,
142,13.0,1.4214214214214214,-0.4207496069346452,,
143,13.0,1.4314314314314314,-0.4703962575922191,,
144,13.0,1.4414414414414414,-0.5166497371767661,,
145,13.0,1.4514514514514514,-0.5695664643247264,,
146,13.0,1.4614614614614614,-0.6099845502313908,,
147,13.0,1.4714714714714714,-0.6585337175490522,,
148,13.0,1.4814814814814814,-0.687704333650191,,
149,13.0,1.4914914914914914,-0.7181331651826729,,
150,13.0,1.5015015015015014,-0.7524607764257132,,
151,13.0,1.5115115115115114,-0.7678233972961148,,
152,13.0,1.5215215215215214,-0.7642574797914278,,
153,13.0,1.5315315315315314,-0.7719955886623894,,
154,13.0,1.5415415415415414,-0.7771856721891593,,
155,13.0,1.5515515515515514,-0.7586413795799931,,
156,13.0,1.5615615615615617,-0.7183034483207169,,
157,13.0,1.5715715715715717,-0.6865234345395318,,
158,13.0,1.5815815815815817,-0.6555198002643501,,
159,13.0,1.5915915915915917,-0.5897008752363831,,
160,13.0,1.6016016016016017,-0.5264922392776255,,
161,13.0,1.6116116116116117,-0.4597022278925582,,
162,13.0,1.6216216216216215,-0.3857861362780169,,
163,13.0,1.6316316316316315,-0.3136245714154294,,
164,13.0,1.6416416416416415,-0.2203079204855799,,
165,13.0,1.6516516516516515,-0.1319057981772303,,
166,13.0,1.6616616616616615,-0.036974867212886,,
167,13.0,1.6716716716716715,0.0470183910504269,,
168,13.0,1.6816816816816818,0.1399853838312569,,
169,13.0,1.6916916916916918,0.224723372996254,,
170,13.0,1.7017017017017018,0.3079552302249754,,
171,13.0,1.7117117117117118,0.3915783259412236,,
172,13.0,1.7217217217217218,0.4623301817944331,,
173,13.0,1.7317317317317318,0.5277882556230576,,
174,13.0,1.7417417417417418,0.5981764619100914,,
175,13.0,1.7517517517517518,0.6471573808091389,,
176,13.0,1.7617617617617618,0.6923211033191499,,
177,13.0,1.7717717717717718,0.7256278554149163,,
178,13.0,1.7817817817817818,0.7556859962015986,,
179,13.0,1.7917917917917918,0.7728799236339507,,
180,13.0,1.8018018018018016,0.7657167125655103,,
181,13.0,1.811811811811812,0.7724963073997687,,
182,13.0,1.8218218218218216,0.7674870096403199,,
183,13.0,1.831831831831832,0.750729915629447,,
184,13.0,1.8418418418418416,0.723282282258327,,
185,13.0,1.851851851851852,0.6954287626967371,,
186,13.0,1.8618618618618616,0.6538468312528855,,
187,13.0,1.871871871871872,0.6127514097776758,,
188,13.0,1.8818818818818817,0.5648868317800506,,
189,13.0,1.891891891891892,0.5258074441887818,,
190,13.0,1.901901901901902,0.4575092164150778,,
191,13.0,1.911911911911912,0.413954962458086,,
192,13.0,1.921921921921922,0.3751042147315981,,
193,13.0,1.931931931931932,0.3197173561731598,,
194,13.0,1.941941941941942,0.2689616739682794,,
195,13.0,1.951951951951952,0.2204869629148312,,
196,13.0,1.961961961961962,0.1861157437887241,,
197,13.0,1.971971971971972,0.1514933274026876,,
198,13.0,1.981981981981982,0.1158266994453174,,
199,13.0,1.991991991991992,0.0806920125560861,,
200,13.0,2.002002002002002,0.0731985137581267,,
201,13.0,2.012012012012012,0.0438969159344442,,
202,13.0,2.022022022022022,0.0308941059653496,,
203,13.0,2.032032032032032,0.0115432209001293,,
204,13.0,2.042042042042042,0.010256851568815,,
205,13.0,2.052052052052052,0.0013499291092756,,
206,13.0,2.062062062062062,0.0008201466607773,,
207,13.0,2.072072072072072,-0.0022541887809568,,
208,13.0,2.0820820820820822,0.0043043627000568,,
209,13.0,2.092092092092092,-0.009141734771945,,
210,13.0,2.1021021021021022,0.0001871889683258,,
211,13.0,2.112112112112112,-0.0048521466730988,,
212,13.0,2.1221221221221223,-0.003652923188047,,
213,13.0,2.1321321321321323,-0.0127971946810495,,
214,13.0,2.1421421421421423,-0.02289809012652,,
215,13.0,2.1521521521521523,-0.0449948897905453,,
216,13.0,2.1621621621621623,-0.0583856121977598,,
217,13.0,2.1721721721721723,-0.0808944798936955,,
218,13.0,2.1821821821821823,-0.10831384627708,,
219,13.0,2.1921921921921923,-0.1448597151491592,,
220,13.0,2.2022022022022023,-0.186582150621411,,
221,13.0,2.2122122122122123,-0.2133754663507323,,
222,13.0,2.2222222222222223,-0.2578888189675248,,
223,13.0,2.2322322322322323,-0.3128936770929764,,
224,13.0,2.2422422422422423,-0.3669807587206669,,
225,13.0,2.2522522522522523,-0.4001960613868577,,
226,13.0,2.2622622622622623,-0.4648489586757967,,
227,13.0,2.2722722722722724,-0.5118227250658872,,
228,13.0,2.2822822822822824,-0.5582948466352174,,
229,13.0,2.2922922922922924,-0.593250766101458,,
230,13.0,2.3023023023023024,-0.6465761129715482,,
231,13.0,2.3123123123123124,-0.6872553221877807,,
232,13.0,2.3223223223223224,-0.7055812056373223,,
233,13.0,2.3323323323323324,-0.7452521904459246,,
234,13.0,2.3423423423423424,-0.7639225480435544,,
235,13.0,2.3523523523523524,-0.773055097499288,,
236,13.0,2.3623623623623624,-0.77572066656153,,
237,13.0,2.3723723723723724,-0.7703006243770614,,
238,13.0,2.3823823823823824,-0.7634398737505281,,
239,13.0,2.3923923923923924,-0.7342930415729474,,
240,13.0,2.4024024024024024,-0.6990534384860334,,
241,13.0,2.4124124124124124,-0.6530919729883262,,
242,13.0,2.4224224224224224,-0.6131099206298687,,
243,13.0,2.4324324324324325,-0.5491634953014061,,
244,13.0,2.4424424424424425,-0.4804687091922208,,
245,13.0,2.4524524524524525,-0.4104552626768984,,
246,13.0,2.4624624624624625,-0.326551956588013,,
247,13.0,2.4724724724724725,-0.2374685982751863,,
248,13.0,2.4824824824824825,-0.1517231088082888,,
249,13.0,2.4924924924924925,-0.061586211112541,,
250,13.0,2.5025025025025025,0.033856585513802,,
251,13.0,2.5125125125125125,0.1083327033764038,,
252,13.0,2.5225225225225225,0.1939563662150249,,
253,13.0,2.5325325325325325,0.2919975030322357,,
254,13.0,2.5425425425425425,0.3724002636247819,,
255,13.0,2.5525525525525525,0.440003504892344,,
256,13.0,2.5625625625625625,0.515229287777239,,
257,13.0,2.5725725725725725,0.5782515997207996,,
258,13.0,2.5825825825825826,0.6331458600228129,,
259,13.0,2.592592592592593,0.6756844778615074,,
260,13.0,2.6026026026026026,0.71931567154148,,
261,13.0,2.612612612612613,0.750563992427541,,
262,13.0,2.6226226226226226,0.7838822180641304,,
263,13.0,2.6326326326326326,0.7771005077011358,,
264,13.0,2.6426426426426426,0.783227096357013,,
265,13.0,2.6526526526526526,0.7703632468394773,,
266,13.0,2.6626626626626626,0.7529462267327709,,
267,13.0,2.6726726726726726,0.7316143166746424,,
268,13.0,2.6826826826826826,0.7015398623039545,,
269,13.0,2.6926926926926926,0.6603253949857734,,
270,13.0,2.702702702702702,0.6255696558584994,,
271,13.0,2.7127127127127126,0.5891054606392954,,
272,13.0,2.722722722722722,0.5441952175273523,,
273,13.0,2.7327327327327327,0.4767390361299953,,
274,13.0,2.7427427427427427,0.430784213830593,,
275,13.0,2.7527527527527527,0.3731837314386063,,
276,13.0,2.7627627627627627,0.3356678280911432,,
277,13.0,2.7727727727727727,0.2813950099975413,,
278,13.0,2.7827827827827827,0.2401344042582288,,
279,13.0,2.7927927927927927,0.2081214818764678,,
280,13.0,2.8028028028028027,0.1636221836062455,,
281,13.0,2.8128128128128127,0.1222583922768297,,
282,13.0,2.8228228228228227,0.0946524221870915,,
283,13.0,2.8328328328328327,0.0706918615736346,,
284,13.0,2.8428428428428427,0.0477661287009238,,
285,13.0,2.8528528528528527,0.0332417637451893,,
286,13.0,2.8628628628628627,0.0207975490171674,,
287,13.0,2.8728728728728727,0.0064143445277067,,
288,13.0,2.8828828828828827,0.0016252954998457,,
289,13.0,2.8928928928928928,0.0015214584372474,,
290,13.0,2.9029029029029028,-0.0006717478048156,,
291,13.0,2.9129129129129128,0.0022769357132092,,
292,13.0,2.9229229229229228,0.0018524975160377,,
293,13.0,2.932932932932933,0.0024343670809014,,
294,13.0,2.942942942942943,0.001379644685781,,
295,13.0,2.952952952952953,-0.0125815517823528,,
296,13.0,2.962962962962963,-0.0065635386966776,,
297,13.0,2.972972972972973,-0.0306757128823465,,
298,13.0,2.982982982982983,-0.0269577381364452,,
299,13.0,2.992992992992993,-0.0442341837224498,,
300,13.0,3.003003003003003,-0.071166715378888,,
301,13.0,3.013013013013013,-0.1026108029339213,,
302,13.0,3.023023023023023,-0.1362137676178736,,
303,13.0,3.033033033033033,-0.1660987500654194,,
304,13.0,3.043043043043043,-0.2011382533847218,,
305,13.0,3.053053053053053,-0.2541900324534417,,
306,13.0,3.063063063063063,-0.2924718717793821,,
307,13.0,3.073073073073073,-0.3398525619606128,,
308,13.0,3.083083083083083,-0.3916900933909675,,
309,13.0,3.093093093093093,-0.4376986659603163,,
310,13.0,3.103103103103103,-0.5039081196719388,,
311,13.0,3.113113113113113,-0.5480000556812556,,
312,13.0,3.123123123123123,-0.5893214404470181,,
313,13.0,3.133133133133133,-0.6382800724125905,,
314,13.0,3.143143143143143,-0.6783019718641788,,
315,13.0,3.153153153153153,-0.7085101781211756,,
316,13.0,3.163163163163163,-0.7449071519653903,,
317,13.0,3.173173173173173,-0.7585098600352875,,
318,13.0,3.183183183183183,-0.7750281280633943,,
319,13.0,3.193193193193193,-0.7854113023269417,,
320,13.0,3.203203203203203,-0.7753462474753862,,
321,13.0,3.2132132132132134,-0.7633264048616133,,
322,13.0,3.2232232232232234,-0.7413004340208678,,
323,13.0,3.2332332332332334,-0.7083627597969506,,
324,13.0,3.2432432432432434,-0.6576597205825397,,
325,13.0,3.253253253253253,-0.6225440157599069,,
326,13.0,3.2632632632632634,-0.5711807636435845,,
327,13.0,3.273273273273273,-0.4936533941726042,,
328,13.0,3.2832832832832834,-0.4200976287929328,,
329,13.0,3.293293293293293,-0.3384267197472908,,
330,13.0,3.3033033033033035,-0.2644519047316578,,
331,13.0,3.313313313313313,-0.180334963986914,,
332,13.0,3.3233233233233235,-0.0925852025871361,,
333,13.0,3.333333333333333,-0.0022602393057533,,
334,13.0,3.3433433433433435,0.0826385518982703,,
335,13.0,3.353353353353353,0.1714116993249121,,
336,13.0,3.3633633633633635,0.2702972963221708,,
337,13.0,3.373373373373373,0.3434144481032231,,
338,13.0,3.3833833833833835,0.4177941886950332,,
339,13.0,3.393393393393393,0.4993648725617379,,
340,13.0,3.4034034034034035,0.5653787310761383,,
341,13.0,3.413413413413413,0.6216486375786702,,
342,13.0,3.4234234234234235,0.67313523696422,,
343,13.0,3.433433433433433,0.7091115615966866,,
344,13.0,3.443443443443444,0.7406038306077737,,
345,13.0,3.4534534534534536,0.7599306477591907,,
346,13.0,3.463463463463464,0.7785800347082842,,
347,13.0,3.4734734734734736,0.7760696354002588,,
348,13.0,3.483483483483484,0.7748874138764886,,
349,13.0,3.4934934934934936,0.760233130548684,,
350,13.0,3.503503503503504,0.7462014202418109,,
351,13.0,3.5135135135135136,0.7006526514400536,,
352,13.0,3.523523523523524,0.6744914830077754,,
353,13.0,3.5335335335335336,0.648336557249458,,
354,13.0,3.543543543543544,0.5939210416601086,,
355,13.0,3.5535535535535536,0.5407708979897612,,
356,13.0,3.563563563563564,0.4967778696031908,,
357,13.0,3.5735735735735736,0.4384343927130369,,
358,13.0,3.583583583583584,0.3911083527045644,,
359,13.0,3.5935935935935936,0.3433757994170861,,
360,13.0,3.603603603603604,0.3020213913733723,,
361,13.0,3.6136136136136137,0.2378019497508777,,
362,13.0,3.623623623623624,0.2137777208134207,,
363,13.0,3.6336336336336337,0.1698093810343584,,
364,13.0,3.643643643643644,0.1390543857249728,,
365,13.0,3.6536536536536537,0.098326498794496,,
366,13.0,3.663663663663664,0.0785065499700928,,
367,13.0,3.6736736736736737,0.0496353010887162,,
368,13.0,3.683683683683684,0.0214632665879099,,
369,13.0,3.6936936936936937,0.0185808832705379,,
370,13.0,3.703703703703704,0.0126287788871245,,
371,13.0,3.7137137137137137,0.0042789386191488,,
372,13.0,3.723723723723724,0.0047844080993331,,
373,13.0,3.7337337337337337,-0.0017321925687473,,
374,13.0,3.743743743743744,0.0037586707496581,,
375,13.0,3.7537537537537538,-0.0073912356088817,,
376,13.0,3.763763763763764,0.0007315158943293,,
377,13.0,3.7737737737737738,-0.00136001109185,,
378,13.0,3.783783783783784,-0.0089871785770555,,
379,13.0,3.793793793793794,-0.014004833493516,,
380,13.0,3.803803803803804,-0.0218569374804669,,
381,13.0,3.813813813813814,-0.0294958312423921,,
382,13.0,3.823823823823824,-0.0522851436713187,,
383,13.0,3.833833833833834,-0.0613630287893529,,
384,13.0,3.843843843843844,-0.0947682690062236,,
385,13.0,3.853853853853854,-0.1285631670955238,,
386,13.0,3.863863863863864,-0.1588823581030966,,
387,13.0,3.873873873873874,-0.1914107356658233,,
388,13.0,3.883883883883884,-0.2295236568396025,,
389,13.0,3.893893893893894,-0.2817418983504998,,
390,13.0,3.903903903903904,-0.3343261549677567,,
391,13.0,3.913913913913914,-0.3878924561388475,,
392,13.0,3.923923923923924,-0.42907674686994,,
393,13.0,3.933933933933934,-0.4949788602095306,,
394,13.0,3.943943943943944,-0.5254747554851658,,
395,13.0,3.953953953953954,-0.5781217023107755,,
396,13.0,3.963963963963964,-0.6310592054748901,,
397,13.0,3.973973973973974,-0.664298730211794,,
398,13.0,3.983983983983984,-0.6982508824833294,,
399,13.0,3.993993993993994,-0.7352105745046565,,
400,13.0,4.004004004004004,-0.7588360005009074,,
401,13.0,4.014014014014014,-0.7740369799101403,,
402,13.0,4.024024024024024,-0.779367955311358,,
403,13.0,4.034034034034034,-0.7801600860445306,,
404,13.0,4.044044044044044,-0.7695944170270599,,
405,13.0,4.054054054054054,-0.7450738356140301,,
406,13.0,4.064064064064064,-0.7195360430673431,,
407,13.0,4.074074074074074,-0.6814005911842169,,
408,13.0,4.084084084084084,-0.6325391537013267,,
409,13.0,4.094094094094094,-0.5748197555969133,,
410,13.0,4.104104104104104,-0.511840163613309,,
411,13.0,4.114114114114114,-0.4532132279748894,,
412,13.0,4.124124124124124,-0.3640502140747016,,
413,13.0,4.134134134134134,-0.2863373417106898,,
414,13.0,4.144144144144144,-0.206016596629678,,
415,13.0,4.1541541541541545,-0.1024529048007189,,
416,13.0,4.1641641641641645,-0.0205851468351938,,
417,13.0,4.174174174174175,0.0747176207560621,,
418,13.0,4.1841841841841845,0.1611703138539376,,
419,13.0,4.1941941941941945,0.2373584874355874,,
420,13.0,4.2042042042042045,0.328435814271801,,
421,13.0,4.214214214214215,0.4054860370509562,,
422,13.0,4.2242242242242245,0.4900614121606386,,
423,13.0,4.2342342342342345,0.5485094112515358,,
424,13.0,4.2442442442442445,0.6123219843938018,,
425,13.0,4.254254254254255,0.6552322442408107,,
426,13.0,4.2642642642642645,0.706962503635665,,
427,13.0,4.2742742742742745,0.7326792319564192,,
428,13.0,4.2842842842842845,0.7638194776421008,,
429,13.0,4.294294294294295,0.7732606907374463,,
430,13.0,4.3043043043043046,0.7758112090396689,,
431,13.0,4.314314314314315,0.7767918865594864,,
432,13.0,4.324324324324325,0.7728338848321403,,
433,13.0,4.334334334334335,0.7477013469726577,,
434,13.0,4.344344344344345,0.7240073691972077,,
435,13.0,4.354354354354355,0.6868561602640051,,
436,13.0,4.364364364364365,0.6425365763245228,,
437,13.0,4.374374374374375,0.5988009066957148,,
438,13.0,4.384384384384385,0.5584928845206237,,
439,13.0,4.394394394394395,0.5016481086100621,,
440,13.0,4.404404404404405,0.4597177322989003,,
441,13.0,4.414414414414415,0.4129584989838311,,
442,13.0,4.424424424424425,0.3585431083791653,,
443,13.0,4.434434434434435,0.3114846036177306,,
444,13.0,4.444444444444445,0.2599602513735394,,
445,13.0,4.454454454454455,0.2166642961020224,,
446,13.0,4.464464464464465,0.169436653840149,,
447,13.0,4.474474474474475,0.1329375955935458,,
448,13.0,4.484484484484485,0.1063734560899361,,
449,13.0,4.494494494494495,0.0814274705532489,,
450,13.0,4.504504504504505,0.0548584771429951,,
451,13.0,4.514514514514515,0.0423376459883604,,
452,13.0,4.524524524524525,0.0315694274871496,,
453,13.0,4.534534534534535,0.0152916104688636,,
454,13.0,4.544544544544545,0.002894721599274,,
455,13.0,4.554554554554555,0.006629597084441,,
456,13.0,4.564564564564565,0.0079177329425397,,
457,13.0,4.574574574574575,0.0153838444409681,,
458,13.0,4.584584584584585,0.0046907722100113,,
459,13.0,4.594594594594595,-0.0061282881058333,,
460,13.0,4.604604604604605,0.0010169062787152,,
461,13.0,4.614614614614615,-0.006492810534196,,
462,13.0,4.624624624624625,-0.003709075698283,,
463,13.0,4.634634634634635,-0.0195491708332069,,
464,13.0,4.644644644644645,-0.0296764684235466,,
465,13.0,4.654654654654655,-0.0463228248306773,,
466,13.0,4.664664664664665,-0.0577068190409819,,
467,13.0,4.674674674674675,-0.0833228686688627,,
468,13.0,4.684684684684685,-0.1135022568261618,,
469,13.0,4.694694694694695,-0.1503199230149966,,
470,13.0,4.704704704704705,-0.1865265042636996,,
471,13.0,4.714714714714715,-0.2323698320002651,,
472,13.0,4.724724724724725,-0.2666889979808391,,
473,13.0,4.734734734734735,-0.3164954451983461,,
474,13.0,4.744744744744745,-0.3695430441823482,,
475,13.0,4.754754754754755,-0.4122774198449635,,
476,13.0,4.764764764764765,-0.4718021029743253,,
477,13.0,4.774774774774775,-0.5178421343930019,,
478,13.0,4.784784784784785,-0.565614612315272,,
479,13.0,4.794794794794795,-0.6046562699538061,,
480,13.0,4.804804804804805,-0.6488408283576683,,
481,13.0,4.814814814814815,-0.7029326690430331,,
482,13.0,4.824824824824825,-0.7237926693572405,,
483,13.0,4.834834834834835,-0.7481414834823261,,
484,13.0,4.844844844844845,-0.7653629358755983,,
485,13.0,4.854854854854855,-0.7822203628780814,,
486,13.0,4.864864864864865,-0.778563320605784,,
487,13.0,4.874874874874875,-0.7611134530247393,,
488,13.0,4.884884884884885,-0.7498783279894811,,
489,13.0,4.894894894894895,-0.7275426791628492,,
490,13.0,4.904904904904905,-0.6954730339638924,,
491,13.0,4.914914914914915,-0.6471609202495276,,
492,13.0,4.924924924924925,-0.5914236118456778,,
493,13.0,4.934934934934935,-0.5306326884388923,,
494,13.0,4.944944944944945,-0.4708018186185247,,
495,13.0,4.954954954954955,-0.384130751766545,,
496,13.0,4.964964964964965,-0.3017451445684905,,
497,13.0,4.974974974974975,-0.2153984900486064,,
498,13.0,4.984984984984985,-0.141898127320372,,
499,13.0,4.994994994994995,-0.0470198913741936,,
500,13.0,5.005005005005005,0.0412598561664452,,
501,13.0,5.015015015015015,0.1362033026791825,,
502,13.0,5.025025025025025,0.221506349051279,,
503,13.0,5.035035035035035,0.3115910487446812,,
504,13.0,5.045045045045045,0.386905205113386,,
505,13.0,5.055055055055055,0.4596447000407068,,
506,13.0,5.065065065065065,0.5309009558617047,,
507,13.0,5.075075075075075,0.5959586461075356,,
508,13.0,5.085085085085085,0.6471155656957603,,
509,13.0,5.095095095095095,0.6830267133896023,,
510,13.0,5.105105105105105,0.7229373871707462,,
511,13.0,5.115115115115115,0.7496465084428048,,
512,13.0,5.125125125125125,0.7710836439309213,,
513,13.0,5.135135135135135,0.7694354694590153,,
514,13.0,5.145145145145145,0.7788485920945785,,
515,13.0,5.155155155155155,0.7621971178184733,,
516,13.0,5.165165165165165,0.7494722992490557,,
517,13.0,5.175175175175175,0.7200994005918725,,
518,13.0,5.185185185185185,0.7051593581762505,,
519,13.0,5.195195195195195,0.6561981588476034,,
520,13.0,5.205205205205205,0.6110871837398145,,
521,13.0,5.215215215215215,0.5669147538421769,,
522,13.0,5.225225225225225,0.5135783066384896,,
523,13.0,5.235235235235235,0.4624000806229852,,
524,13.0,5.245245245245245,0.4250322695795373,,
525,13.0,5.255255255255255,0.3704262624991927,,
526,13.0,5.265265265265265,0.3181606282079738,,
527,13.0,5.275275275275275,0.2670442443374378,,
528,13.0,5.285285285285285,0.2314426227251953,,
529,13.0,5.295295295295295,0.1894134910086027,,
530,13.0,5.305305305305305,0.1585456684484497,,
531,13.0,5.315315315315315,0.127049841833978,,
532,13.0,5.325325325325325,0.0831363817527349,,
533,13.0,5.335335335335335,0.06513501284849,,
534,13.0,5.345345345345345,0.0479419501035577,,
535,13.0,5.355355355355355,0.0210333086225714,,
536,13.0,5.365365365365365,0.0180819083592318,,
537,13.0,5.375375375375375,0.0085353082575616,,
538,13.0,5.385385385385385,0.0133570740284567,,
539,13.0,5.395395395395395,0.0024868368195696,,
540,13.0,5.405405405405405,0.0015840048286979,,
541,13.0,5.415415415415415,0.0025306575054819,,
542,13.0,5.425425425425425,0.0024812284104419,,
543,13.0,5.435435435435435,-0.0042327796807083,,
544,13.0,5.445445445445445,0.0020916075621937,,
545,13.0,5.455455455455455,-0.0043083829918126,,
546,13.0,5.465465465465465,-0.0150916825114914,,
547,13.0,5.475475475475475,-0.0310012867712561,,
548,13.0,5.485485485485485,-0.0442687813172892,,
549,13.0,5.495495495495495,-0.0556388758444655,,
550,13.0,5.505505505505505,-0.0864353503439092,,
551,13.0,5.515515515515515,-0.1140885859207871,,
552,13.0,5.525525525525525,-0.1421020846390965,,
553,13.0,5.535535535535535,-0.1866808102652432,,
554,13.0,5.545545545545545,-0.2152392124764042,,
555,13.0,5.555555555555555,-0.2604274258578147,,
556,13.0,5.565565565565565,-0.3000712656756524,,
557,13.0,5.575575575575575,-0.3596436279108089,,
558,13.0,5.585585585585585,-0.4044343874460336,,
559,13.0,5.595595595595595,-0.4612463416974022,,
560,13.0,5.605605605605605,-0.5079230516375678,,
561,13.0,5.615615615615615,-0.5604273408578399,,
562,13.0,5.625625625625625,-0.6035326200441121,,
563,13.0,5.635635635635635,-0.6442382752455793,,
564,13.0,5.645645645645645,-0.6854653832387445,,
565,13.0,5.655655655655655,-0.7158106663151717,,
566,13.0,5.665665665665665,-0.756888161590925,,
567,13.0,5.675675675675675,-0.764026916867347,,
568,13.0,5.685685685685685,-0.7743217449739127,,
569,13.0,5.695695695695696,-0.7821284693942407,,
570,13.0,5.7057057057057055,-0.7788623281029787,,
571,13.0,5.715715715715716,-0.7635280674944509,,
572,13.0,5.7257257257257255,-0.7407758137185061,,
573,13.0,5.735735735735736,-0.7071014870301064,,
574,13.0,5.7457457457457455,-0.661533884568345,,
575,13.0,5.755755755755756,-0.6061763043450947,,
576,13.0,5.7657657657657655,-0.5473155052191542,,
577,13.0,5.775775775775776,-0.4793996356575868,,
578,13.0,5.7857857857857855,-0.4079893067528927,,
579,13.0,5.795795795795796,-0.3238010001072774,,
580,13.0,5.8058058058058055,-0.2390394468559054,,
581,13.0,5.815815815815816,-0.1603213503227298,,
582,13.0,5.8258258258258255,-0.067984256161269,,
583,13.0,5.835835835835836,0.017202370462226,,
584,13.0,5.8458458458458455,0.1211314957883079,,
585,13.0,5.855855855855856,0.2009319106179495,,
586,13.0,5.865865865865866,0.2891719064749768,,
587,13.0,5.875875875875876,0.373731574116007,,
588,13.0,5.885885885885886,0.4517223653756312,,
589,13.0,5.895895895895896,0.5193701519476133,,
590,13.0,5.905905905905906,0.5863933679309756,,
591,13.0,5.915915915915916,0.6399022909134885,,
592,13.0,5.925925925925926,0.6889258399390512,,
593,13.0,5.935935935935936,0.720646932083698,,
594,13.0,5.945945945945946,0.7471465110097841,,
595,13.0,5.955955955955956,0.7692436220566352,,
596,13.0,5.965965965965966,0.7816643114690854,,
597,13.0,5.975975975975976,0.7798365881860199,,
598,13.0,5.985985985985986,0.7777991407374221,,
599,13.0,5.995995995995996,0.7488253077486224,,
600,13.0,6.006006006006006,0.726472877128203,,
601,13.0,6.016016016016016,0.7131991861214071,,
602,13.0,6.026026026026026,0.6641340894679009,,
603,13.0,6.036036036036036,0.6265086679884206,,
604,13.0,6.046046046046046,0.580463742727622,,
605,13.0,6.056056056056056,0.5385459979305429,,
606,13.0,6.066066066066066,0.4934057758117722,,
607,13.0,6.076076076076076,0.4342727434661187,,
608,13.0,6.086086086086086,0.3750331450874286,,
609,13.0,6.096096096096096,0.3320044941035556,,
610,13.0,6.106106106106106,0.2833897580701391,,
611,13.0,6.116116116116116,0.2385127365794656,,
612,13.0,6.126126126126126,0.1989738680502051,,
613,13.0,6.136136136136136,0.1520702505292748,,
614,13.0,6.146146146146146,0.1211288989305779,,
615,13.0,6.156156156156156,0.0885188034755323,,
616,13.0,6.166166166166166,0.0704869824178443,,
617,13.0,6.176176176176176,0.0439862391214725,,
618,13.0,6.186186186186186,0.0256074529417409,,
619,13.0,6.196196196196196,0.0169606782830428,,
620,13.0,6.206206206206206,0.0115642427820478,,
621,13.0,6.216216216216216,0.000668650408595,,
622,13.0,6.226226226226226,-0.0028929438989033,,
623,13.0,6.236236236236236,0.0008013617844695,,
624,13.0,6.246246246246246,0.0019283164663544,,
625,13.0,6.256256256256256,-0.0003416581659042,,
626,13.0,6.266266266266266,0.0054145127142347,,
627,13.0,6.276276276276276,-0.0005256689072572,,
628,13.0,6.286286286286286,-0.0008590316288999,,
629,13.0,6.296296296296296,-0.0056971618210827,,
630,13.0,6.306306306306306,-0.0136581799860887,,
631,13.0,6.316316316316316,-0.0367988717241294,,
632,13.0,6.326326326326326,-0.0468561880200609,,
633,13.0,6.336336336336336,-0.0722528280588875,,
634,13.0,6.346346346346346,-0.104043172938205,,
635,13.0,6.356356356356356,-0.1326367048509828,,
636,13.0,6.366366366366366,-0.1727221589524111,,
637,13.0,6.376376376376376,-0.2012895011454631,,
638,13.0,6.386386386386386,-0.2505387324968679,,
639,13.0,6.396396396396396,-0.2976626082613865,,
640,13.0,6.406406406406406,-0.3421086839143681,,
641,13.0,6.416416416416417,-0.3891186072121623,,
642,13.0,6.426426426426427,-0.4479999530167329,,
643,13.0,6.436436436436437,-0.4943809568168193,,
644,13.0,6.446446446446447,-0.5463211553901829,,
645,13.0,6.456456456456457,-0.5976773236821648,,
646,13.0,6.466466466466467,-0.6395237358139212,,
647,13.0,6.476476476476477,-0.6724588191735151,,
648,13.0,6.486486486486487,-0.7091115489173686,,
649,13.0,6.496496496496497,-0.7342888181228341,,
650,13.0,6.506506506506507,-0.7596484943351659,,
651,13.0,6.516516516516517,-0.775518293532899,,
652,13.0,6.526526526526527,-0.7782550148202739,,
653,13.0,6.536536536536537,-0.7757805851196369,,
654,13.0,6.546546546546547,-0.7673246857958719,,
655,13.0,6.556556556556557,-0.7424969109463124,,
656,13.0,6.566566566566567,-0.7172945019001107,,
657,13.0,6.576576576576577,-0.6728060981683135,,
658,13.0,6.586586586586587,-0.6292926594140391,,
659,13.0,6.596596596596597,-0.5622196328788988,,
660,13.0,6.606606606606607,-0.4935858078641377,,
661,13.0,6.616616616616617,-0.4271392030832893,,
662,13.0,6.626626626626627,-0.3423485299505348,,
663,13.0,6.636636636636637,-0.2696170059257408,,
664,13.0,6.646646646646647,-0.1709258044120205,,
665,13.0,6.656656656656657,-0.090242364191824,,
666,13.0,6.666666666666667,-0.0024701775664778,,
667,13.0,6.676676676676677,0.090890342278418,,
668,13.0,6.686686686686687,0.178962141775775,,
669,13.0,6.696696696696697,0.2639755420324191,,
670,13.0,6.706706706706707,0.3475936522330637,,
671,13.0,6.716716716716717,0.4306438685051195,,
672,13.0,6.726726726726727,0.498108249865766,,
673,13.0,6.736736736736737,0.5792626236348113,,
674,13.0,6.746746746746747,0.6164687837895819,,
675,13.0,6.756756756756757,0.6671680482478995,,
676,13.0,6.766766766766767,0.7032037923734498,,
677,13.0,6.776776776776777,0.7463347171957881,,
678,13.0,6.786786786786787,0.76259805529041,,
679,13.0,6.796796796796797,0.7789237918337905,,
680,13.0,6.806806806806807,0.7789395784100432,,
681,13.0,6.816816816816817,0.781718758011134,,
682,13.0,6.826826826826827,0.7591558807306508,,
683,13.0,6.836836836836837,0.7299940795499226,,
684,13.0,6.846846846846847,0.7096278270980699,,
685,13.0,6.856856856856857,0.6741366978672394,,
686,13.0,6.866866866866867,0.6242325402657759,,
687,13.0,6.876876876876877,0.5930974369552381,,
688,13.0,6.886886886886887,0.5413513185061434,,
689,13.0,6.896896896896897,0.4951585452745405,,
690,13.0,6.906906906906907,0.4431278580161734,,
691,13.0,6.916916916916917,0.3977809812609317,,
692,13.0,6.926926926926927,0.3472963897362681,,
693,13.0,6.936936936936937,0.295418829126287,,
694,13.0,6.946946946946947,0.2458552032009062,,
695,13.0,6.956956956956957,0.2048587349939692,,
696,13.0,6.966966966966967,0.1721452018200526,,
697,13.0,6.976976976976977,0.1322891673920706,,
698,13.0,6.986986986986987,0.0928757849750991,,
699,13.0,6.996996996996997,0.0683036835874247,,
700,13.0,7.007007007007007,0.0470681470423827,,
701,13.0,7.017017017017017,0.034298210969555,,
702,13.0,7.027027027027027,0.0192428334540753,,
703,13.0,7.037037037037037,0.0163286121605252,,
704,13.0,7.047047047047047,0.0065954152030805,,
705,13.0,7.057057057057057,-0.003675286090677,,
706,13.0,7.067067067067067,-0.0056306811791524,,
707,13.0,7.077077077077077,-0.0040045091776971,,
708,13.0,7.087087087087087,-0.004050940374212,,
709,13.0,7.097097097097097,0.0022464817886371,,
710,13.0,7.107107107107107,0.0086606875139086,,
711,13.0,7.117117117117117,-0.0013731851238844,,
712,13.0,7.127127127127127,-0.0076642076454421,,
713,13.0,7.137137137137137,-0.0111269636437528,,
714,13.0,7.147147147147147,-0.0319329023529585,,
715,13.0,7.157157157157157,-0.046727350009318,,
716,13.0,7.167167167167167,-0.0664943018477411,,
717,13.0,7.177177177177177,-0.0895785882388241,,
718,13.0,7.187187187187187,-0.1239534290869638,,
719,13.0,7.197197197197197,-0.1575371359844647,,
720,13.0,7.207207207207207,-0.1937878471812321,,
721,13.0,7.217217217217217,-0.2410432172579369,,
722,13.0,7.227227227227227,-0.2814636588748744,,
723,13.0,7.237237237237237,-0.3328458954176624,,
724,13.0,7.247247247247247,-0.3748694343563337,,
725,13.0,7.257257257257257,-0.4236608015211808,,
726,13.0,7.267267267267267,-0.4920080630389766,,
727,13.0,7.277277277277277,-0.5373218902859124,,
728,13.0,7.287287287287287,-0.5826462859756764,,
729,13.0,7.297297297297297,-0.6246686054246681,,
730,13.0,7.307307307307307,-0.6633647715611661,,
731,13.0,7.317317317317317,-0.6976258549651447,,
732,13.0,7.327327327327327,-0.7338495086934764,,
733,13.0,7.337337337337337,-0.757125711881131,,
734,13.0,7.347347347347347,-0.7742260660798839,,
735,13.0,7.357357357357357,-0.7880410137655603,,
736,13.0,7.367367367367367,-0.7744089604325136,,
737,13.0,7.377377377377377,-0.7619411946926072,,
738,13.0,7.387387387387387,-0.7500004250197378,,
739,13.0,7.397397397397397,-0.7161400681185974,,
740,13.0,7.407407407407407,-0.6792221218418627,,
741,13.0,7.4174174174174174,-0.6324714128013665,,
742,13.0,7.4274274274274275,-0.5789919915083322,,
743,13.0,7.437437437437437,-0.5154216984263574,,
744,13.0,7.447447447447447,-0.4446344218864123,,
745,13.0,7.4574574574574575,-0.3614382894926009,,
746,13.0,7.4674674674674675,-0.286073740465313,,
747,13.0,7.477477477477477,-0.2051204257346164,,
748,13.0,7.487487487487487,-0.1093364679227169,,
749,13.0,7.4974974974974975,-0.0168992378007184,,
750,13.0,7.5075075075075075,0.0708195326646456,,
751,13.0,7.517517517517517,0.1613119731305858,,
752,13.0,7.527527527527527,0.2418836260828349,,
753,13.0,7.5375375375375375,0.3216463882712736,,
754,13.0,7.5475475475475475,0.407768391947044,,
755,13.0,7.557557557557557,0.4868600841681739,,
756,13.0,7.567567567567567,0.5437352792344146,,
757,13.0,7.5775775775775776,0.609000169913799,,
758,13.0,7.587587587587588,0.6651481975283915,,
759,13.0,7.597597597597598,0.7081191135591193,,
760,13.0,7.607607607607608,0.7441883283849736,,
761,13.0,7.617617617617618,0.7620362493911936,,
762,13.0,7.627627627627628,0.7737648825920803,,
763,13.0,7.637637637637638,0.7786348378112256,,
764,13.0,7.647647647647648,0.7801434326717351,,
765,13.0,7.657657657657658,0.7670959258731563,,
766,13.0,7.667667667667668,0.7471408159685589,,
767,13.0,7.677677677677678,0.7177129761912141,,
768,13.0,7.687687687687688,0.6893105411423062,,
769,13.0,7.697697697697698,0.6497723943865826,,
770,13.0,7.707707707707708,0.6067182162078655,,
771,13.0,7.717717717717718,0.5484842447032081,,
772,13.0,7.727727727727728,0.5090411314524338,,
773,13.0,7.737737737737738,0.4609104853872531,,
774,13.0,7.747747747747748,0.4089543672332003,,
775,13.0,7.757757757757758,0.3608037986451615,,
776,13.0,7.767767767767768,0.3024829487531265,,
777,13.0,7.777777777777778,0.2505005816642249,,
778,13.0,7.787787787787788,0.2142132296648959,,
779,13.0,7.797797797797798,0.1756390744495884,,
780,13.0,7.807807807807808,0.143706768847027,,
781,13.0,7.817817817817818,0.1042969533860827,,
782,13.0,7.827827827827828,0.0758006898868144,,
783,13.0,7.837837837837838,0.0567921798959202,,
784,13.0,7.847847847847848,0.0419301413558375,,
785,13.0,7.857857857857858,0.0253421738374139,,
786,13.0,7.867867867867868,0.016439412928859,,
787,13.0,7.877877877877878,0.0010611294988784,,
788,13.0,7.887887887887888,-0.0049675927870944,,
789,13.0,7.897897897897898,0.0058627509037531,,
790,13.0,7.907907907907908,0.0005997345682946,,
791,13.0,7.917917917917918,0.0067098874256609,,
792,13.0,7.927927927927928,-0.0037093971408293,,
793,13.0,7.937937937937938,-0.0019831217028292,,
794,13.0,7.947947947947948,-0.0059515379295327,,
795,13.0,7.957957957957958,-0.0063115817789766,,
796,13.0,7.967967967967968,-0.0213989625368518,,
797,13.0,7.977977977977978,-0.0269697691917575,,
798,13.0,7.987987987987988,-0.0438181839067117,,
799,13.0,7.997997997997998,-0.0638333900706281,,
800,13.0,8.008008008008009,-0.0992631844426875,,
801,13.0,8.018018018018019,-0.1115272201433363,,
802,13.0,8.028028028028029,-0.1450270011128192,,
803,13.0,8.038038038038039,-0.1928184048618202,,
804,13.0,8.048048048048049,-0.2155172697938026,,
805,13.0,8.058058058058059,-0.2700594324434144,,
806,13.0,8.068068068068069,-0.3283510899035298,,
807,13.0,8.078078078078079,-0.3673190278076583,,
808,13.0,8.088088088088089,-0.4194440524105413,,
809,13.0,8.098098098098099,-0.4676665995317561,,
810,13.0,8.108108108108109,-0.5215495932147509,,
811,13.0,8.118118118118119,-0.5611126067546974,,
812,13.0,8.128128128128129,-0.6143802307368047,,
813,13.0,8.138138138138139,-0.659707329521559,,
814,13.0,8.148148148148149,-0.6858984483143348,,
815,13.0,8.158158158158159,-0.7165654027956446,,
816,13.0,8.168168168168169,-0.756409568358213,,
817,13.0,8.178178178178179,-0.7707092566138924,,
818,13.0,8.188188188188189,-0.7801409370996112,,
819,13.0,8.198198198198199,-0.7753479812908154,,
820,13.0,8.208208208208209,-0.7819728969161138,,
821,13.0,8.218218218218219,-0.7540686795572152,,
822,13.0,8.228228228228229,-0.7208698733335132,,
823,13.0,8.238238238238239,-0.690043256214173,,
824,13.0,8.248248248248249,-0.6474223122953903,,
825,13.0,8.258258258258259,-0.5947586607366947,,
826,13.0,8.268268268268269,-0.5341628398797396,,
827,13.0,8.278278278278279,-0.4712363050110956,,
828,13.0,8.288288288288289,-0.3898384444146966,,
829,13.0,8.298298298298299,-0.3151927045879981,,
830,13.0,8.308308308308309,-0.2212534375068969,,
831,13.0,8.318318318318319,-0.1416566431577658,,
832,13.0,8.328328328328329,-0.0422663682197956,,
833,13.0,8.338338338338339,0.0423980018099541,,
834,13.0,8.348348348348349,0.1391387580313788,,
835,13.0,8.358358358358359,0.2128045739433216,,
836,13.0,8.368368368368369,0.3037138710894066,,
837,13.0,8.378378378378379,0.3949608392370503,,
838,13.0,8.388388388388389,0.4571008506131482,,
839,13.0,8.398398398398399,0.5307546611200572,,
840,13.0,8.408408408408409,0.5952822828654045,,
841,13.0,8.418418418418419,0.636810103236961,,
842,13.0,8.428428428428429,0.7047882963898879,,
843,13.0,8.438438438438439,0.7299363858660827,,
844,13.0,8.448448448448449,0.7512770409950983,,
845,13.0,8.458458458458459,0.7763710402697991,,
846,13.0,8.468468468468469,0.783371620500758,,
847,13.0,8.478478478478479,0.7848306682914641,,
848,13.0,8.488488488488489,0.775574892876096,,
849,13.0,8.498498498498499,0.7478250882097724,,
850,13.0,8.508508508508509,0.728973947606147,,
851,13.0,8.518518518518519,0.6935123085885025,,
852,13.0,8.528528528528529,0.6665596438239847,,
853,13.0,8.538538538538539,0.6105395846317714,,
854,13.0,8.548548548548549,0.5603757538941505,,
855,13.0,8.558558558558559,0.51497028655634,,
856,13.0,8.568568568568569,0.4635338185022395,,
857,13.0,8.578578578578579,0.4157387172270252,,
858,13.0,8.588588588588589,0.3792220909927241,,
859,13.0,8.598598598598599,0.3133041640044571,,
860,13.0,8.608608608608609,0.2726751697375519,,
861,13.0,8.618618618618619,0.2204826298877705,,
862,13.0,8.62862862862863,0.1849895622912259,,
863,13.0,8.63863863863864,0.1544061947461921,,
864,13.0,8.64864864864865,0.1137478704519692,,
865,13.0,8.65865865865866,0.093455151721891,,
866,13.0,8.66866866866867,0.0595814521198039,,
867,13.0,8.67867867867868,0.042987894364562,,
868,13.0,8.68868868868869,0.0302106615266689,,
869,13.0,8.6986986986987,0.0297711281207906,,
870,13.0,8.70870870870871,0.0090734622526999,,
871,13.0,8.71871871871872,0.0047059226166425,,
872,13.0,8.72872872872873,-0.0030039186815159,,
873,13.0,8.73873873873874,0.0009979354460188,,
874,13.0,8.74874874874875,-0.0021808154296025,,
875,13.0,8.75875875875876,-0.0067035988927883,,
876,13.0,8.76876876876877,-0.0015991506354289,,
877,13.0,8.77877877877878,-0.0059438948186137,,
878,13.0,8.78878878878879,-0.00361834448939,,
879,13.0,8.7987987987988,-0.0106296199893032,,
880,13.0,8.80880880880881,-0.0295063368958353,,
881,13.0,8.81881881881882,-0.0376865495476683,,
882,13.0,8.82882882882883,-0.0584380195416534,,
883,13.0,8.83883883883884,-0.08865234421539,,
884,13.0,8.84884884884885,-0.105269637482481,,
885,13.0,8.85885885885886,-0.1435375799009065,,
886,13.0,8.86886886886887,-0.1736747315925958,,
887,13.0,8.87887887887888,-0.2180276294256073,,
888,13.0,8.88888888888889,-0.2544069082189494,,
889,13.0,8.8988988988989,-0.3103617380264259,,
890,13.0,8.90890890890891,-0.3534922344845602,,
891,13.0,8.91891891891892,-0.4141637329359013,,
892,13.0,8.92892892892893,-0.4643952167401095,,
893,13.0,8.93893893893894,-0.5089071949216176,,
894,13.0,8.94894894894895,-0.5544123248768519,,
895,13.0,8.95895895895896,-0.6081036545776666,,
896,13.0,8.96896896896897,-0.6495833209441972,,
897,13.0,8.97897897897898,-0.6741474296733471,,
898,13.0,8.98898898898899,-0.7212158539921987,,
899,13.0,8.998998998999,-0.7457519137588555,,
900,13.0,9.00900900900901,-0.7720898201680509,,
901,13.0,9.01901901901902,-0.7640882013959689,,
902,13.0,9.02902902902903,-0.7794697171977063,,
903,13.0,9.03903903903904,-0.7677367281536794,,
904,13.0,9.04904904904905,-0.7562927676105067,,
905,13.0,9.05905905905906,-0.7296111097614624,,
906,13.0,9.06906906906907,-0.7046199017212676,,
907,13.0,9.07907907907908,-0.6601805354115933,,
908,13.0,9.08908908908909,-0.5987848476484636,,
909,13.0,9.0990990990991,-0.5445828658372462,,
910,13.0,9.10910910910911,-0.4772693687973357,,
911,13.0,9.11911911911912,-0.4059038621154243,,
912,13.0,9.12912912912913,-0.3329153328708129,,
913,13.0,9.13913913913914,-0.2434006338730458,,
914,13.0,9.14914914914915,-0.1670713651273177,,
915,13.0,9.15915915915916,-0.057312090777434,,
916,13.0,9.16916916916917,0.020107933124073,,
917,13.0,9.17917917917918,0.1197399414667469,,
918,13.0,9.18918918918919,0.1918635458766361,,
919,13.0,9.1991991991992,0.2905113960077374,,
920,13.0,9.20920920920921,0.3657040161204479,,
921,13.0,9.21921921921922,0.4456083884709575,,
922,13.0,9.22922922922923,0.5178050197392899,,
923,13.0,9.23923923923924,0.5726122205271141,,
924,13.0,9.24924924924925,0.6370823037505734,,
925,13.0,9.25925925925926,0.6840467230148026,,
926,13.0,9.26926926926927,0.7239918396472557,,
927,13.0,9.27927927927928,0.7527039342951894,,
928,13.0,9.28928928928929,0.772800902150714,,
929,13.0,9.2992992992993,0.782046155896561,,
930,13.0,9.30930930930931,0.7786251347238711,,
931,13.0,9.31931931931932,0.7784414958967845,,
932,13.0,9.32932932932933,0.7536915147146394,,
933,13.0,9.33933933933934,0.7365795609365277,,
934,13.0,9.34934934934935,0.7033011494302771,,
935,13.0,9.35935935935936,0.6718181987381151,,
936,13.0,9.36936936936937,0.6158089666292796,,
937,13.0,9.37937937937938,0.5755764771947709,,
938,13.0,9.38938938938939,0.5386054728847239,,
939,13.0,9.3993993993994,0.4697082354256182,,
940,13.0,9.40940940940941,0.4351053684616773,,
941,13.0,9.41941941941942,0.3796684883194954,,
942,13.0,9.42942942942943,0.3394934907640204,,
943,13.0,9.43943943943944,0.2788218219656276,,
944,13.0,9.44944944944945,0.2362939594415378,,
945,13.0,9.45945945945946,0.1919103345355832,,
946,13.0,9.46946946946947,0.1512482633067301,,
947,13.0,9.47947947947948,0.117965969230407,,
948,13.0,9.48948948948949,0.0973690177864108,,
949,13.0,9.4994994994995,0.0691284947306564,,
950,13.0,9.50950950950951,0.042842309941406,,
951,13.0,9.51951951951952,0.0326054026753386,,
952,13.0,9.52952952952953,0.0166687487298649,,
953,13.0,9.53953953953954,0.0120994712576816,,
954,13.0,9.54954954954955,-0.0024041194511708,,
955,13.0,9.55955955955956,0.0038227481621744,,
956,13.0,9.56956956956957,-0.0067041052610794,,
957,13.0,9.57957957957958,-0.0012770866342139,,
958,13.0,9.58958958958959,0.0059239616391026,,
959,13.0,9.5995995995996,0.0014900978600053,,
960,13.0,9.60960960960961,0.0035536537661527,,
961,13.0,9.61961961961962,-0.0103817764849244,,
962,13.0,9.62962962962963,-0.0091668248632107,,
963,13.0,9.63963963963964,-0.0268463271758953,,
964,13.0,9.64964964964965,-0.0315047750783155,,
965,13.0,9.65965965965966,-0.0476417389686091,,
966,13.0,9.66966966966967,-0.0845068516895777,,
967,13.0,9.67967967967968,-0.0971471485697559,,
968,13.0,9.68968968968969,-0.132296488245263,,
969,13.0,9.6996996996997,-0.1704009904532695,,
970,13.0,9.70970970970971,-0.2026811402566083,,
971,13.0,9.71971971971972,-0.248042464054029,,
972,13.0,9.72972972972973,-0.2923831095041363,,
973,13.0,9.73973973973974,-0.3516735810258183,,
974,13.0,9.74974974974975,-0.3951497101548626,,
975,13.0,9.75975975975976,-0.446335427825425,,
976,13.0,9.76976976976977,-0.5067839539621081,,
977,13.0,9.77977977977978,-0.5422824229299158,,
978,13.0,9.78978978978979,-0.5914986699803065,,
979,13.0,9.7997997997998,-0.6424418115912044,,
980,13.0,9.80980980980981,-0.6719866472549029,,
981,13.0,9.81981981981982,-0.7115371222811147,,
982,13.0,9.82982982982983,-0.7394943349075723,,
983,13.0,9.83983983983984,-0.7682152934124569,,
984,13.0,9.84984984984985,-0.774228255847169,,
985,13.0,9.85985985985986,-0.784604602656322,,
986,13.0,9.86986986986987,-0.7850135657501587,,
987,13.0,9.87987987987988,-0.7635236945717758,,
988,13.0,9.88988988988989,-0.7412635811164588,,
989,13.0,9.8998998998999,-0.7162761857033754,,
990,13.0,9.90990990990991,-0.6698212863401249,,
991,13.0,9.91991991991992,-0.6264703449257569,,
992,13.0,9.92992992992993,-0.5566068375521469,,
993,13.0,9.93993993993994,-0.4942150825716265,,
994,13.0,9.94994994994995,-0.4287264363556317,,
995,13.0,9.95995995995996,-0.3507632125807727,,
996,13.0,9.96996996996997,-0.2671337338068021,,
997,13.0,9.97997997997998,-0.176008173347049,,
998,13.0,9.98998998998999,-0.0945737714825098,,
999,13.0,10.0,0.004606607487176,,
0,,,,71.0,37.98588026
1,,,,87.0,63.99203399
2,,,,65.0,87.45502852
3,,,,76.0,59.90844847
4,,,,93.0,60.70464529
5,,,,75.0,31.85818104
6,,,,98.0,27.55325512
7,,,,68.0,88.21327519
8,,,,86.0,46.05414594
9,,,,61.0,90.14936228
10,,,,79.0,40.73856427
11,,,,91.0,63.75629742
12,,,,86.0,76.43595811
13,,,,65.0,88.12241627
14,,,,90.0,59.40902284
15,,,,80.0,90.7207735
16,,,,86.0,20.09507654
17,,,,92.0,37.07977298
18,,,,66.0,97.32098137
19,,,,67.0,99.56933584
