,Subject_ID,Time,PPG,HR,HRV
0,8.0,0.0,0.003151728646853,,
1,8.0,0.01001001001001,0.0921211744699557,,
2,8.0,0.02002002002002,0.1749119022917683,,
3,8.0,0.03003003003003,0.2636870182524763,,
4,8.0,0.04004004004004,0.3525816939501447,,
5,8.0,0.05005005005005,0.4269059209910991,,
6,8.0,0.06006006006006,0.4985992356394819,,
7,8.0,0.07007007007007,0.561352940792312,,
8,8.0,0.08008008008008,0.6237404987795899,,
9,8.0,0.09009009009009,0.6662933033474578,,
10,8.0,0.1001001001001,0.7140738076634883,,
11,8.0,0.1101101101101101,0.7458306328144475,,
12,8.0,0.1201201201201201,0.7631730668042583,,
13,8.0,0.1301301301301301,0.7815552320482131,,
14,8.0,0.1401401401401401,0.7797342710924409,,
15,8.0,0.1501501501501501,0.7739451782224507,,
16,8.0,0.1601601601601601,0.7560612744400261,,
17,8.0,0.1701701701701701,0.7367465807841086,,
18,8.0,0.1801801801801801,0.7147792346657792,,
19,8.0,0.1901901901901901,0.6731505159373489,,
20,8.0,0.2002002002002001,0.6301360098894181,,
21,8.0,0.2102102102102102,0.5866253615169467,,
22,8.0,0.2202202202202202,0.5455841963978707,,
23,8.0,0.2302302302302302,0.4928219589723098,,
24,8.0,0.2402402402402402,0.4361378079434869,,
25,8.0,0.2502502502502503,0.3964913059603143,,
26,8.0,0.2602602602602603,0.3450215804156065,,
27,8.0,0.2702702702702703,0.299050802843277,,
28,8.0,0.2802802802802803,0.2481895586888788,,
29,8.0,0.2902902902902903,0.205177908870098,,
30,8.0,0.3003003003003003,0.1680846008858278,,
31,8.0,0.3103103103103103,0.126566047376058,,
32,8.0,0.3203203203203203,0.1038317827322277,,
33,8.0,0.3303303303303303,0.0725350852974041,,
34,8.0,0.3403403403403403,0.0540467026738988,,
35,8.0,0.3503503503503503,0.0298736613084124,,
36,8.0,0.3603603603603603,0.0178280506916599,,
37,8.0,0.3703703703703703,0.0067460327746664,,
38,8.0,0.3803803803803803,0.0045834795847358,,
39,8.0,0.3903903903903903,0.0088598980460819,,
40,8.0,0.4004004004004003,-0.0020796039420226,,
41,8.0,0.4104104104104104,0.007297020239825,,
42,8.0,0.4204204204204204,0.0021291413736201,,
43,8.0,0.4304304304304304,-0.0041282173211459,,
44,8.0,0.4404404404404404,0.0047996268370768,,
45,8.0,0.4504504504504504,-0.0008133321296571,,
46,8.0,0.4604604604604604,-0.0142162867255509,,
47,8.0,0.4704704704704704,-0.0164883958951853,,
48,8.0,0.4804804804804805,-0.0320389703110265,,
49,8.0,0.4904904904904905,-0.0508954065167523,,
50,8.0,0.5005005005005005,-0.0668135081215913,,
51,8.0,0.5105105105105106,-0.0956088863092043,,
52,8.0,0.5205205205205206,-0.1232777085570436,,
53,8.0,0.5305305305305306,-0.1552375951898255,,
54,8.0,0.5405405405405406,-0.1919277280897398,,
55,8.0,0.5505505505505506,-0.2290109718278144,,
56,8.0,0.5605605605605606,-0.2790843036999293,,
57,8.0,0.5705705705705706,-0.3270638071506331,,
58,8.0,0.5805805805805806,-0.3755308706661247,,
59,8.0,0.5905905905905906,-0.4297282582467839,,
60,8.0,0.6006006006006006,-0.4805501663682905,,
61,8.0,0.6106106106106106,-0.5302679782777999,,
62,8.0,0.6206206206206206,-0.5937190204066148,,
63,8.0,0.6306306306306306,-0.6231658772000427,,
64,8.0,0.6406406406406406,-0.6708170858605742,,
65,8.0,0.6506506506506506,-0.704454753203465,,
66,8.0,0.6606606606606606,-0.7316947159636324,,
67,8.0,0.6706706706706707,-0.7536787088624853,,
68,8.0,0.6806806806806807,-0.7704680134438882,,
69,8.0,0.6906906906906907,-0.7811673957894846,,
70,8.0,0.7007007007007007,-0.7824158720639178,,
71,8.0,0.7107107107107107,-0.7714253378494091,,
72,8.0,0.7207207207207207,-0.7420931435800813,,
73,8.0,0.7307307307307307,-0.7182162165700657,,
74,8.0,0.7407407407407407,-0.6842025223438489,,
75,8.0,0.7507507507507507,-0.6350305282178598,,
76,8.0,0.7607607607607607,-0.5812867817080543,,
77,8.0,0.7707707707707707,-0.5138218587265773,,
78,8.0,0.7807807807807807,-0.4395848166294178,,
79,8.0,0.7907907907907907,-0.3627850872311053,,
80,8.0,0.8008008008008007,-0.2878291543808181,,
81,8.0,0.8108108108108109,-0.1992438240775117,,
82,8.0,0.8208208208208209,-0.1074324665754299,,
83,8.0,0.8308308308308309,-0.0272016903054961,,
84,8.0,0.8408408408408409,0.0749116388865854,,
85,8.0,0.8508508508508509,0.1469717735392917,,
86,8.0,0.8608608608608609,0.2403426813826904,,
87,8.0,0.8708708708708709,0.3369848649787442,,
88,8.0,0.8808808808808809,0.4143586236365921,,
89,8.0,0.8908908908908909,0.4793376130757337,,
90,8.0,0.9009009009009008,0.5407666056638032,,
91,8.0,0.9109109109109108,0.6019946331048245,,
92,8.0,0.9209209209209208,0.6588781603817773,,
93,8.0,0.9309309309309308,0.6887381673339745,,
94,8.0,0.9409409409409408,0.7315872302425505,,
95,8.0,0.950950950950951,0.7551038466117992,,
96,8.0,0.960960960960961,0.7800520323645248,,
97,8.0,0.970970970970971,0.784907652991508,,
98,8.0,0.980980980980981,0.7734917218774976,,
99,8.0,0.990990990990991,0.7626472618242468,,
100,8.0,1.001001001001001,0.7486976317880948,,
101,8.0,1.011011011011011,0.7128261858378695,,
102,8.0,1.021021021021021,0.6911962705803935,,
103,8.0,1.031031031031031,0.6404144319487012,,
104,8.0,1.0410410410410411,0.6026342001224996,,
105,8.0,1.0510510510510511,0.55098954041232,,
106,8.0,1.0610610610610611,0.5035697199280658,,
107,8.0,1.0710710710710711,0.4547066673790743,,
108,8.0,1.0810810810810811,0.4093321808325525,,
109,8.0,1.0910910910910911,0.3543375000489249,,
110,8.0,1.1011011011011012,0.3047208950981928,,
111,8.0,1.1111111111111112,0.266744063259892,,
112,8.0,1.1211211211211212,0.2083387749722056,,
113,8.0,1.1311311311311312,0.1698008410402116,,
114,8.0,1.1411411411411412,0.1362903919597698,,
115,8.0,1.1511511511511512,0.107214338136852,,
116,8.0,1.1611611611611612,0.0749557136232082,,
117,8.0,1.1711711711711712,0.0565131885450893,,
118,8.0,1.1811811811811812,0.0452730141943194,,
119,8.0,1.1911911911911912,0.0270610689011523,,
120,8.0,1.2012012012012012,0.0079942118206913,,
121,8.0,1.2112112112112112,0.0012709688629022,,
122,8.0,1.2212212212212212,0.0081373885460685,,
123,8.0,1.2312312312312312,0.0094880159882419,,
124,8.0,1.2412412412412412,-0.0050992768450822,,
125,8.0,1.2512512512512513,0.0035268229127685,,
126,8.0,1.2612612612612613,-0.0033517701384686,,
127,8.0,1.2712712712712713,-0.0053972641277149,,
128,8.0,1.2812812812812813,0.0027509111657326,,
129,8.0,1.2912912912912913,0.0006918233877748,,
130,8.0,1.3013013013013013,-0.0223861594369001,,
131,8.0,1.3113113113113113,-0.0237591418004686,,
132,8.0,1.3213213213213213,-0.0387885633667675,,
133,8.0,1.3313313313313313,-0.0690596351901329,,
134,8.0,1.3413413413413413,-0.0876985571847766,,
135,8.0,1.351351351351351,-0.1270730637875241,,
136,8.0,1.361361361361361,-0.1514870005524107,,
137,8.0,1.371371371371371,-0.188491737068795,,
138,8.0,1.3813813813813811,-0.2256485398018392,,
139,8.0,1.3913913913913911,-0.2722806071694367,,
140,8.0,1.4014014014014011,-0.3169617734562701,,
141,8.0,1.4114114114114114,-0.3664982049453616,,
142,8.0,1.4214214214214214,-0.4046425555734654,,
143,8.0,1.4314314314314314,-0.4702029786285418,,
144,8.0,1.4414414414414414,-0.5163160273664095,,
145,8.0,1.4514514514514514,-0.563738098943324,,
146,8.0,1.4614614614614614,-0.6131300163995602,,
147,8.0,1.4714714714714714,-0.6591799004224667,,
148,8.0,1.4814814814814814,-0.6963421122495376,,
149,8.0,1.4914914914914914,-0.7258409076842521,,
150,8.0,1.5015015015015014,-0.7501106244329016,,
151,8.0,1.5115115115115114,-0.7707394344504473,,
152,8.0,1.5215215215215214,-0.773333389810687,,
153,8.0,1.5315315315315314,-0.7830070211116956,,
154,8.0,1.5415415415415414,-0.7757134876814441,,
155,8.0,1.5515515515515514,-0.760677593092291,,
156,8.0,1.5615615615615617,-0.7251610753995649,,
157,8.0,1.5715715715715717,-0.6899184415963765,,
158,8.0,1.5815815815815817,-0.6460295393293326,,
159,8.0,1.5915915915915917,-0.5861604037074013,,
160,8.0,1.6016016016016017,-0.5362773753571519,,
161,8.0,1.6116116116116117,-0.4705091606333247,,
162,8.0,1.6216216216216215,-0.383708916980422,,
163,8.0,1.6316316316316315,-0.2999643173667757,,
164,8.0,1.6416416416416415,-0.2227221275850805,,
165,8.0,1.6516516516516515,-0.1241816029163106,,
166,8.0,1.6616616616616615,-0.0517491208182178,,
167,8.0,1.6716716716716715,0.0415044512764171,,
168,8.0,1.6816816816816818,0.1412378765947441,,
169,8.0,1.6916916916916918,0.2236928857334456,,
170,8.0,1.7017017017017018,0.3116512464883953,,
171,8.0,1.7117117117117118,0.3755751086437571,,
172,8.0,1.7217217217217218,0.4638974529498639,,
173,8.0,1.7317317317317318,0.5332134263415798,,
174,8.0,1.7417417417417418,0.5943643952229558,,
175,8.0,1.7517517517517518,0.6477781221769736,,
176,8.0,1.7617617617617618,0.6889714181338096,,
177,8.0,1.7717717717717718,0.7311377760814609,,
178,8.0,1.7817817817817818,0.751815091211242,,
179,8.0,1.7917917917917918,0.7745073033972509,,
180,8.0,1.8018018018018016,0.784879326003595,,
181,8.0,1.811811811811812,0.7730425212778309,,
182,8.0,1.8218218218218216,0.7701683676778551,,
183,8.0,1.831831831831832,0.7595226859331923,,
184,8.0,1.8418418418418416,0.7205763688608444,,
185,8.0,1.851851851851852,0.6972543047286194,,
186,8.0,1.8618618618618616,0.6599067064280294,,
187,8.0,1.871871871871872,0.6084200317830979,,
188,8.0,1.8818818818818817,0.5720027068366057,,
189,8.0,1.891891891891892,0.5205572478640952,,
190,8.0,1.901901901901902,0.4570067846532403,,
191,8.0,1.911911911911912,0.4199833688437268,,
192,8.0,1.921921921921922,0.3662910499165338,,
193,8.0,1.931931931931932,0.3193421674533094,,
194,8.0,1.941941941941942,0.2549065856280146,,
195,8.0,1.951951951951952,0.2305652731802453,,
196,8.0,1.961961961961962,0.1926738379255415,,
197,8.0,1.971971971971972,0.1540749634156111,,
198,8.0,1.981981981981982,0.1056534725280724,,
199,8.0,1.991991991991992,0.0955581751379669,,
200,8.0,2.002002002002002,0.0604620052984837,,
201,8.0,2.012012012012012,0.0379530638623233,,
202,8.0,2.022022022022022,0.0374838714244166,,
203,8.0,2.032032032032032,0.0104827405555395,,
204,8.0,2.042042042042042,0.0045162577689317,,
205,8.0,2.052052052052052,-0.0037142062941363,,
206,8.0,2.062062062062062,0.0122504891455088,,
207,8.0,2.072072072072072,0.0063587033575564,,
208,8.0,2.0820820820820822,-0.0054306240411068,,
209,8.0,2.092092092092092,-0.0001342552619502,,
210,8.0,2.1021021021021022,-0.0047915123750538,,
211,8.0,2.112112112112112,0.0035332414488692,,
212,8.0,2.1221221221221223,-0.0061975231745168,,
213,8.0,2.1321321321321323,-0.0197576236644813,,
214,8.0,2.1421421421421423,-0.0147474950319021,,
215,8.0,2.1521521521521523,-0.0396881705852028,,
216,8.0,2.1621621621621623,-0.0597167129847922,,
217,8.0,2.1721721721721723,-0.0840735382883944,,
218,8.0,2.1821821821821823,-0.1117263152881695,,
219,8.0,2.1921921921921923,-0.1428239658051486,,
220,8.0,2.2022022022022023,-0.1710844969831848,,
221,8.0,2.2122122122122123,-0.2115404880485119,,
222,8.0,2.2222222222222223,-0.2642061981694753,,
223,8.0,2.2322322322322323,-0.3077081109769827,,
224,8.0,2.2422422422422423,-0.3605822448069304,,
225,8.0,2.2522522522522523,-0.4061709256675672,,
226,8.0,2.2622622622622623,-0.4619899845320024,,
227,8.0,2.2722722722722724,-0.504720124511369,,
228,8.0,2.2822822822822824,-0.5536461232115699,,
229,8.0,2.2922922922922924,-0.6064293924279266,,
230,8.0,2.3023023023023024,-0.6519695738653514,,
231,8.0,2.3123123123123124,-0.6852616562906712,,
232,8.0,2.3223223223223224,-0.7113358355042811,,
233,8.0,2.3323323323323324,-0.7438396966933799,,
234,8.0,2.3423423423423424,-0.7603258788941496,,
235,8.0,2.3523523523523524,-0.7728913521399953,,
236,8.0,2.3623623623623624,-0.7822261971285023,,
237,8.0,2.3723723723723724,-0.7793565725141526,,
238,8.0,2.3823823823823824,-0.7604720201303284,,
239,8.0,2.3923923923923924,-0.7303795957843422,,
240,8.0,2.4024024024024024,-0.7027027459592882,,
241,8.0,2.4124124124124124,-0.6619924723738775,,
242,8.0,2.4224224224224224,-0.6064618306750503,,
243,8.0,2.4324324324324325,-0.5488283634546863,,
244,8.0,2.4424424424424425,-0.4763618979599103,,
245,8.0,2.4524524524524525,-0.4015586469339807,,
246,8.0,2.4624624624624625,-0.329760202188393,,
247,8.0,2.4724724724724725,-0.246352499739302,,
248,8.0,2.4824824824824825,-0.1624287353234262,,
249,8.0,2.4924924924924925,-0.0676219447856366,,
250,8.0,2.5025025025025025,0.024431466018025,,
251,8.0,2.5125125125125125,0.1116135397066397,,
252,8.0,2.5225225225225225,0.2053946431991126,,
253,8.0,2.5325325325325325,0.2943792345133597,,
254,8.0,2.5425425425425425,0.3696062923221434,,
255,8.0,2.5525525525525525,0.4468677910191549,,
256,8.0,2.5625625625625625,0.5151690181693387,,
257,8.0,2.5725725725725725,0.5818387928435923,,
258,8.0,2.5825825825825826,0.6367724384004668,,
259,8.0,2.592592592592593,0.678070773138335,,
260,8.0,2.6026026026026026,0.7184676390334509,,
261,8.0,2.612612612612613,0.7387003202007663,,
262,8.0,2.6226226226226226,0.7706282125177144,,
263,8.0,2.6326326326326326,0.7816496714309586,,
264,8.0,2.6426426426426426,0.7835858712796236,,
265,8.0,2.6526526526526526,0.7772991590924555,,
266,8.0,2.6626626626626626,0.7559773574221031,,
267,8.0,2.6726726726726726,0.7368371685466861,,
268,8.0,2.6826826826826826,0.7077435826570966,,
269,8.0,2.6926926926926926,0.663477081356381,,
270,8.0,2.702702702702702,0.6224649788951835,,
271,8.0,2.7127127127127126,0.5836192523581059,,
272,8.0,2.722722722722722,0.5351720095087862,,
273,8.0,2.7327327327327327,0.4804518670977077,,
274,8.0,2.7427427427427427,0.4326987681319961,,
275,8.0,2.7527527527527527,0.3814461796279745,,
276,8.0,2.7627627627627627,0.3327825133159358,,
277,8.0,2.7727727727727727,0.2849802846376394,,
278,8.0,2.7827827827827827,0.2383795875298081,,
279,8.0,2.7927927927927927,0.1895966355367933,,
280,8.0,2.8028028028028027,0.1544343805417295,,
281,8.0,2.8128128128128127,0.1237493488931214,,
282,8.0,2.8228228228228227,0.0907621529562894,,
283,8.0,2.8328328328328327,0.0598686668232101,,
284,8.0,2.8428428428428427,0.0387225836984133,,
285,8.0,2.8528528528528527,0.0330307135612633,,
286,8.0,2.8628628628628627,0.0184980822488817,,
287,8.0,2.8728728728728727,0.0065822326786495,,
288,8.0,2.8828828828828827,-0.0018839292477353,,
289,8.0,2.8928928928928928,-0.0092528100105,,
290,8.0,2.9029029029029028,0.0064129955839641,,
291,8.0,2.9129129129129128,-0.0013077588627294,,
292,8.0,2.9229229229229228,-0.0023314595612666,,
293,8.0,2.932932932932933,0.0038218246477653,,
294,8.0,2.942942942942943,-0.0077553514597893,,
295,8.0,2.952952952952953,0.0011384518553458,,
296,8.0,2.962962962962963,-0.010236692723578,,
297,8.0,2.972972972972973,-0.0309087768743257,,
298,8.0,2.982982982982983,-0.0321926793705188,,
299,8.0,2.992992992992993,-0.0590667988938818,,
300,8.0,3.003003003003003,-0.0757027959157162,,
301,8.0,3.013013013013013,-0.1034929864672911,,
302,8.0,3.023023023023023,-0.1377449303660504,,
303,8.0,3.033033033033033,-0.1775608922197439,,
304,8.0,3.043043043043043,-0.20739055805113,,
305,8.0,3.053053053053053,-0.2559097734840629,,
306,8.0,3.063063063063063,-0.2992971252075254,,
307,8.0,3.073073073073073,-0.3495747333602412,,
308,8.0,3.083083083083083,-0.3950882207490746,,
309,8.0,3.093093093093093,-0.4357181109551852,,
310,8.0,3.103103103103103,-0.4903143055595733,,
311,8.0,3.113113113113113,-0.544610453147181,,
312,8.0,3.123123123123123,-0.5940975061443962,,
313,8.0,3.133133133133133,-0.6340144092244103,,
314,8.0,3.143143143143143,-0.6787774403342997,,
315,8.0,3.153153153153153,-0.7175454217160235,,
316,8.0,3.163163163163163,-0.7380464261219104,,
317,8.0,3.173173173173173,-0.763243275408356,,
318,8.0,3.183183183183183,-0.7759545919785781,,
319,8.0,3.193193193193193,-0.7709061813580428,,
320,8.0,3.203203203203203,-0.7832807969147524,,
321,8.0,3.2132132132132134,-0.7689132208023141,,
322,8.0,3.2232232232232234,-0.7460698188601012,,
323,8.0,3.2332332332332334,-0.7064257458964086,,
324,8.0,3.2432432432432434,-0.6691471227224796,,
325,8.0,3.253253253253253,-0.6230216684774069,,
326,8.0,3.2632632632632634,-0.5650296512055057,,
327,8.0,3.273273273273273,-0.4933209152505626,,
328,8.0,3.2832832832832834,-0.4423431163505811,,
329,8.0,3.293293293293293,-0.3456490904699136,,
330,8.0,3.3033033033033035,-0.2613617465532415,,
331,8.0,3.313313313313313,-0.181990134696922,,
332,8.0,3.3233233233233235,-0.0889910670902757,,
333,8.0,3.333333333333333,0.0105087834852976,,
334,8.0,3.3433433433433435,0.095492637271527,,
335,8.0,3.353353353353353,0.1772980786832781,,
336,8.0,3.3633633633633635,0.2750591411864224,,
337,8.0,3.373373373373373,0.3415034909555167,,
338,8.0,3.3833833833833835,0.4247266960095618,,
339,8.0,3.393393393393393,0.4941728384760819,,
340,8.0,3.4034034034034035,0.564893728170905,,
341,8.0,3.413413413413413,0.6161514137845753,,
342,8.0,3.4234234234234235,0.6708641055384706,,
343,8.0,3.433433433433433,0.7159872395410066,,
344,8.0,3.443443443443444,0.7385157572638922,,
345,8.0,3.4534534534534536,0.7629873388317088,,
346,8.0,3.463463463463464,0.7684611672254894,,
347,8.0,3.4734734734734736,0.7875051896459988,,
348,8.0,3.483483483483484,0.771810916064102,,
349,8.0,3.4934934934934936,0.7701599001757617,,
350,8.0,3.503503503503504,0.741606628157652,,
351,8.0,3.5135135135135136,0.7113824259103364,,
352,8.0,3.523523523523524,0.6766742042947226,,
353,8.0,3.5335335335335336,0.636911063103222,,
354,8.0,3.543543543543544,0.5919941107055814,,
355,8.0,3.5535535535535536,0.5448547493496305,,
356,8.0,3.563563563563564,0.4925301674189711,,
357,8.0,3.5735735735735736,0.4455708062961054,,
358,8.0,3.583583583583584,0.3922503204153944,,
359,8.0,3.5935935935935936,0.345210918297587,,
360,8.0,3.603603603603604,0.2902159876960546,,
361,8.0,3.6136136136136137,0.2440487404544145,,
362,8.0,3.623623623623624,0.2158236468511252,,
363,8.0,3.6336336336336337,0.1634081471988851,,
364,8.0,3.643643643643644,0.1309876002507397,,
365,8.0,3.6536536536536537,0.0984227952165185,,
366,8.0,3.663663663663664,0.0752947731632536,,
367,8.0,3.6736736736736737,0.0503667621275431,,
368,8.0,3.683683683683684,0.0253091178948238,,
369,8.0,3.6936936936936937,0.0223853144567784,,
370,8.0,3.703703703703704,0.0113291787918461,,
371,8.0,3.7137137137137137,0.0083940853811005,,
372,8.0,3.723723723723724,0.0045966708942883,,
373,8.0,3.7337337337337337,-0.0022117569674166,,
374,8.0,3.743743743743744,0.0026622683751171,,
375,8.0,3.7537537537537538,-0.0114495532009334,,
376,8.0,3.763763763763764,-0.0019692703732654,,
377,8.0,3.7737737737737738,-0.0036242500785228,,
378,8.0,3.783783783783784,-0.0020052736921209,,
379,8.0,3.793793793793794,-0.003549904283492,,
380,8.0,3.803803803803804,-0.0193695330196876,,
381,8.0,3.813813813813814,-0.0336862703268559,,
382,8.0,3.823823823823824,-0.0497339512666482,,
383,8.0,3.833833833833834,-0.0762745454043875,,
384,8.0,3.843843843843844,-0.094626569724847,,
385,8.0,3.853853853853854,-0.1285908310570435,,
386,8.0,3.863863863863864,-0.1520806524457292,,
387,8.0,3.873873873873874,-0.1838408990970132,,
388,8.0,3.883883883883884,-0.2354748137023686,,
389,8.0,3.893893893893894,-0.284776834401523,,
390,8.0,3.903903903903904,-0.3261639340432364,,
391,8.0,3.913913913913914,-0.3767054160580111,,
392,8.0,3.923923923923924,-0.4248234075289434,,
393,8.0,3.933933933933934,-0.4827800881695352,,
394,8.0,3.943943943943944,-0.527503279616032,,
395,8.0,3.953953953953954,-0.5808493018775087,,
396,8.0,3.963963963963964,-0.6299541613908433,,
397,8.0,3.973973973973974,-0.6646906418192211,,
398,8.0,3.983983983983984,-0.6992952725435648,,
399,8.0,3.993993993993994,-0.7332498102243318,,
400,8.0,4.004004004004004,-0.7582462323781669,,
401,8.0,4.014014014014014,-0.7677110039171771,,
402,8.0,4.024024024024024,-0.7791796463970273,,
403,8.0,4.034034034034034,-0.7764979070616044,,
404,8.0,4.044044044044044,-0.7694463807999475,,
405,8.0,4.054054054054054,-0.7448422521533027,,
406,8.0,4.064064064064064,-0.7112370791494121,,
407,8.0,4.074074074074074,-0.6716628014675786,,
408,8.0,4.084084084084084,-0.6310358519558491,,
409,8.0,4.094094094094094,-0.5866338593853301,,
410,8.0,4.104104104104104,-0.5102953747858139,,
411,8.0,4.114114114114114,-0.4502553319304636,,
412,8.0,4.124124124124124,-0.3665821458486965,,
413,8.0,4.134134134134134,-0.2842407490973559,,
414,8.0,4.144144144144144,-0.1978517556728362,,
415,8.0,4.1541541541541545,-0.1210837607775765,,
416,8.0,4.1641641641641645,-0.0251887715190367,,
417,8.0,4.174174174174175,0.0649276863849188,,
418,8.0,4.1841841841841845,0.1508064223588236,,
419,8.0,4.1941941941941945,0.24831484517608,,
420,8.0,4.2042042042042045,0.3287955185059652,,
421,8.0,4.214214214214215,0.4000522190223867,,
422,8.0,4.2242242242242245,0.4815685524542223,,
423,8.0,4.2342342342342345,0.545990938749196,,
424,8.0,4.2442442442442445,0.6058859236378861,,
425,8.0,4.254254254254255,0.6502625412278945,,
426,8.0,4.2642642642642645,0.7078884072990191,,
427,8.0,4.2742742742742745,0.727534608020256,,
428,8.0,4.2842842842842845,0.7494634520976164,,
429,8.0,4.294294294294295,0.7741769609323786,,
430,8.0,4.3043043043043046,0.7706801483347037,,
431,8.0,4.314314314314315,0.7765327778456936,,
432,8.0,4.324324324324325,0.7655718398526522,,
433,8.0,4.334334334334335,0.7416383939664569,,
434,8.0,4.344344344344345,0.72144004877,,
435,8.0,4.354354354354355,0.6903291550309917,,
436,8.0,4.364364364364365,0.6500694860297026,,
437,8.0,4.374374374374375,0.6005762575262183,,
438,8.0,4.384384384384385,0.5557215749788869,,
439,8.0,4.394394394394395,0.5180529832672107,,
440,8.0,4.404404404404405,0.4602013635366908,,
441,8.0,4.414414414414415,0.4044666551766251,,
442,8.0,4.424424424424425,0.357696253611448,,
443,8.0,4.434434434434435,0.3083440847790537,,
444,8.0,4.444444444444445,0.2653977609415718,,
445,8.0,4.454454454454455,0.216679731584932,,
446,8.0,4.464464464464465,0.1750576194989639,,
447,8.0,4.474474474474475,0.137087770665617,,
448,8.0,4.484484484484485,0.1066233639972776,,
449,8.0,4.494494494494495,0.0730969828338523,,
450,8.0,4.504504504504505,0.0600278791579503,,
451,8.0,4.514514514514515,0.0354774996301578,,
452,8.0,4.524524524524525,0.0290655088249502,,
453,8.0,4.534534534534535,0.0177034517222279,,
454,8.0,4.544544544544545,0.0052573328758525,,
455,8.0,4.554554554554555,0.0018943269091815,,
456,8.0,4.564564564564565,0.0069384622850835,,
457,8.0,4.574574574574575,-0.0024799063677652,,
458,8.0,4.584584584584585,-0.0057049286334288,,
459,8.0,4.594594594594595,0.0008570913283016,,
460,8.0,4.604604604604605,0.0104462985170623,,
461,8.0,4.614614614614615,0.0003051114034001,,
462,8.0,4.624624624624625,-0.0139883618409346,,
463,8.0,4.634634634634635,-0.0205039394626659,,
464,8.0,4.644644644644645,-0.0287084632641289,,
465,8.0,4.654654654654655,-0.0426010654202528,,
466,8.0,4.664664664664665,-0.0686556558408093,,
467,8.0,4.674674674674675,-0.085125212254401,,
468,8.0,4.684684684684685,-0.112697268552183,,
469,8.0,4.694694694694695,-0.1515090889923275,,
470,8.0,4.704704704704705,-0.1873637983919576,,
471,8.0,4.714714714714715,-0.232301990208338,,
472,8.0,4.724724724724725,-0.2760932825557122,,
473,8.0,4.734734734734735,-0.314090167791551,,
474,8.0,4.744744744744745,-0.3694725262157948,,
475,8.0,4.754754754754755,-0.4177448946678956,,
476,8.0,4.764764764764765,-0.4681783382377892,,
477,8.0,4.774774774774775,-0.5186414386604543,,
478,8.0,4.784784784784785,-0.5624436648424996,,
479,8.0,4.794794794794795,-0.6046691357347144,,
480,8.0,4.804804804804805,-0.655319607373904,,
481,8.0,4.814814814814815,-0.6954490840708112,,
482,8.0,4.824824824824825,-0.723365168276331,,
483,8.0,4.834834834834835,-0.7517490344947713,,
484,8.0,4.844844844844845,-0.7655722705415342,,
485,8.0,4.854854854854855,-0.7798818820074187,,
486,8.0,4.864864864864865,-0.7752941336771083,,
487,8.0,4.874874874874875,-0.7767630421563358,,
488,8.0,4.884884884884885,-0.7537180797898293,,
489,8.0,4.894894894894895,-0.7314799387177583,,
490,8.0,4.904904904904905,-0.6869722021561451,,
491,8.0,4.914914914914915,-0.651276729051608,,
492,8.0,4.924924924924925,-0.5958063497875348,,
493,8.0,4.934934934934935,-0.5331743372315434,,
494,8.0,4.944944944944945,-0.4590591918397171,,
495,8.0,4.954954954954955,-0.3854936590592197,,
496,8.0,4.964964964964965,-0.3073676977512967,,
497,8.0,4.974974974974975,-0.2216962138828792,,
498,8.0,4.984984984984985,-0.1339026011389499,,
499,8.0,4.994994994994995,-0.04378923287201,,
500,8.0,5.005005005005005,0.0374699331064942,,
501,8.0,5.015015015015015,0.1376016426767051,,
502,8.0,5.025025025025025,0.2222943167928145,,
503,8.0,5.035035035035035,0.3053462484007733,,
504,8.0,5.045045045045045,0.3868317585846597,,
505,8.0,5.055055055055055,0.456790857390788,,
506,8.0,5.065065065065065,0.5353333826837877,,
507,8.0,5.075075075075075,0.5982935157607261,,
508,8.0,5.085085085085085,0.6469434216179404,,
509,8.0,5.095095095095095,0.6957505753416617,,
510,8.0,5.105105105105105,0.7310572890104933,,
511,8.0,5.115115115115115,0.7439303212646847,,
512,8.0,5.125125125125125,0.7651719470608251,,
513,8.0,5.135135135135135,0.788595395118532,,
514,8.0,5.145145145145145,0.7781263322503662,,
515,8.0,5.155155155155155,0.7620895692037462,,
516,8.0,5.165165165165165,0.7438992098086566,,
517,8.0,5.175175175175175,0.7191826745635974,,
518,8.0,5.185185185185185,0.6958273960815582,,
519,8.0,5.195195195195195,0.6557671121641089,,
520,8.0,5.205205205205205,0.6127040095022371,,
521,8.0,5.215215215215215,0.5750052804916064,,
522,8.0,5.225225225225225,0.514390361408577,,
523,8.0,5.235235235235235,0.4703983440039866,,
524,8.0,5.245245245245245,0.4167466552143095,,
525,8.0,5.255255255255255,0.3778665041767616,,
526,8.0,5.265265265265265,0.3276470750382459,,
527,8.0,5.275275275275275,0.2654810560422346,,
528,8.0,5.285285285285285,0.2321091036555869,,
529,8.0,5.295295295295295,0.1932998858369359,,
530,8.0,5.305305305305305,0.14986935998371,,
531,8.0,5.315315315315315,0.1152587346799692,,
532,8.0,5.325325325325325,0.0886506559906609,,
533,8.0,5.335335335335335,0.0636835184435361,,
534,8.0,5.345345345345345,0.0489367916072353,,
535,8.0,5.355355355355355,0.0294785902177228,,
536,8.0,5.365365365365365,0.0084389147815201,,
537,8.0,5.375375375375375,0.0102792037759043,,
538,8.0,5.385385385385385,-0.0008461460348657,,
539,8.0,5.395395395395395,-0.0010091213553771,,
540,8.0,5.405405405405405,-0.0017478331871177,,
541,8.0,5.415415415415415,-0.0085649993502846,,
542,8.0,5.425425425425425,-0.0054486395761705,,
543,8.0,5.435435435435435,-0.0072104053626687,,
544,8.0,5.445445445445445,-0.0005061448404763,,
545,8.0,5.455455455455455,-0.0075646575835202,,
546,8.0,5.465465465465465,-0.0210138069669006,,
547,8.0,5.475475475475475,-0.0245138272246226,,
548,8.0,5.485485485485485,-0.036749084140403,,
549,8.0,5.495495495495495,-0.0487380129805412,,
550,8.0,5.505505505505505,-0.0796103643508563,,
551,8.0,5.515515515515515,-0.1060852259936096,,
552,8.0,5.525525525525525,-0.1398382310300797,,
553,8.0,5.535535535535535,-0.1565765912906768,,
554,8.0,5.545545545545545,-0.2232815385305601,,
555,8.0,5.555555555555555,-0.2622053173323145,,
556,8.0,5.565565565565565,-0.3104480765055017,,
557,8.0,5.575575575575575,-0.3610524576784281,,
558,8.0,5.585585585585585,-0.4180433971064171,,
559,8.0,5.595595595595595,-0.4541545631037034,,
560,8.0,5.605605605605605,-0.5052312152355459,,
561,8.0,5.615615615615615,-0.5546729529931302,,
562,8.0,5.625625625625625,-0.5905714139593489,,
563,8.0,5.635635635635635,-0.642659251449935,,
564,8.0,5.645645645645645,-0.6780337700057416,,
565,8.0,5.655655655655655,-0.7221201429491029,,
566,8.0,5.665665665665665,-0.7419565396836161,,
567,8.0,5.675675675675675,-0.7620130476480025,,
568,8.0,5.685685685685685,-0.7729655154283285,,
569,8.0,5.695695695695696,-0.7797379206419317,,
570,8.0,5.7057057057057055,-0.7725616194404136,,
571,8.0,5.715715715715716,-0.7649123287603448,,
572,8.0,5.7257257257257255,-0.7408668568198039,,
573,8.0,5.735735735735736,-0.7051911336278294,,
574,8.0,5.7457457457457455,-0.6599606110339753,,
575,8.0,5.755755755755756,-0.6010355226834264,,
576,8.0,5.7657657657657655,-0.5553506327586772,,
577,8.0,5.775775775775776,-0.4816005740790972,,
578,8.0,5.7857857857857855,-0.4061983777161228,,
579,8.0,5.795795795795796,-0.3396306630317092,,
580,8.0,5.8058058058058055,-0.2505674095089661,,
581,8.0,5.815815815815816,-0.1608008601546582,,
582,8.0,5.8258258258258255,-0.0734824970146213,,
583,8.0,5.835835835835836,0.0227661769727444,,
584,8.0,5.8458458458458455,0.1118183122039225,,
585,8.0,5.855855855855856,0.197558484245317,,
586,8.0,5.865865865865866,0.2925511474625463,,
587,8.0,5.875875875875876,0.3781790321442706,,
588,8.0,5.885885885885886,0.4316074846530685,,
589,8.0,5.895895895895896,0.5177693322887349,,
590,8.0,5.905905905905906,0.5777500107837342,,
591,8.0,5.915915915915916,0.6384678640160488,,
592,8.0,5.925925925925926,0.6785733550478739,,
593,8.0,5.935935935935936,0.7180920338309996,,
594,8.0,5.945945945945946,0.7505103716515077,,
595,8.0,5.955955955955956,0.7697022014156144,,
596,8.0,5.965965965965966,0.779033089154876,,
597,8.0,5.975975975975976,0.7774982417233848,,
598,8.0,5.985985985985986,0.7699099308127277,,
599,8.0,5.995995995995996,0.7537504530298557,,
600,8.0,6.006006006006006,0.7217425757067361,,
601,8.0,6.016016016016016,0.7078469919845194,,
602,8.0,6.026026026026026,0.66671199623876,,
603,8.0,6.036036036036036,0.6330543167184058,,
604,8.0,6.046046046046046,0.580768750143512,,
605,8.0,6.056056056056056,0.5321752106190288,,
606,8.0,6.066066066066066,0.4779864171038387,,
607,8.0,6.076076076076076,0.4311708334068576,,
608,8.0,6.086086086086086,0.3746817317093514,,
609,8.0,6.096096096096096,0.3307303872337964,,
610,8.0,6.106106106106106,0.2836992785249652,,
611,8.0,6.116116116116116,0.243980469188526,,
612,8.0,6.126126126126126,0.2063489564202936,,
613,8.0,6.136136136136136,0.1553608488336643,,
614,8.0,6.146146146146146,0.1178871468099507,,
615,8.0,6.156156156156156,0.0954799708310336,,
616,8.0,6.166166166166166,0.0680830972464787,,
617,8.0,6.176176176176176,0.0449565907300492,,
618,8.0,6.186186186186186,0.0349018080395574,,
619,8.0,6.196196196196196,0.0211786963886297,,
620,8.0,6.206206206206206,0.0174411184912541,,
621,8.0,6.216216216216216,0.0107329984153299,,
622,8.0,6.226226226226226,-0.0021384920162012,,
623,8.0,6.236236236236236,0.0004857943328841,,
624,8.0,6.246246246246246,0.0008642831288381,,
625,8.0,6.256256256256256,0.0035898508748393,,
626,8.0,6.266266266266266,-0.0029184132077627,,
627,8.0,6.276276276276276,0.0029803125951515,,
628,8.0,6.286286286286286,-0.0101905670953036,,
629,8.0,6.296296296296296,-0.0163437602820981,,
630,8.0,6.306306306306306,-0.0287121725182456,,
631,8.0,6.316316316316316,-0.0334320642840265,,
632,8.0,6.326326326326326,-0.0529160542217533,,
633,8.0,6.336336336336336,-0.0742003194546232,,
634,8.0,6.346346346346346,-0.1043986409801643,,
635,8.0,6.356356356356356,-0.1316478975490185,,
636,8.0,6.366366366366366,-0.1656072466241717,,
637,8.0,6.376376376376376,-0.1965939295814134,,
638,8.0,6.386386386386386,-0.2434590758648919,,
639,8.0,6.396396396396396,-0.29145110722485,,
640,8.0,6.406406406406406,-0.3419514476875379,,
641,8.0,6.416416416416417,-0.3943812007172211,,
642,8.0,6.426426426426427,-0.4506842193673047,,
643,8.0,6.436436436436437,-0.4977491747050597,,
644,8.0,6.446446446446447,-0.5345772033943146,,
645,8.0,6.456456456456457,-0.5892330571014753,,
646,8.0,6.466466466466467,-0.6410283406746166,,
647,8.0,6.476476476476477,-0.6678408264721462,,
648,8.0,6.486486486486487,-0.7085968320370173,,
649,8.0,6.496496496496497,-0.7372925990929979,,
650,8.0,6.506506506506507,-0.7514893842693804,,
651,8.0,6.516516516516517,-0.7838857888132051,,
652,8.0,6.526526526526527,-0.7773500379128557,,
653,8.0,6.536536536536537,-0.7779194482524304,,
654,8.0,6.546546546546547,-0.7665237808596392,,
655,8.0,6.556556556556557,-0.740485684409248,,
656,8.0,6.566566566566567,-0.7141339042435014,,
657,8.0,6.576576576576577,-0.6699817698987036,,
658,8.0,6.586586586586587,-0.6332750836075434,,
659,8.0,6.596596596596597,-0.5693635859661561,,
660,8.0,6.606606606606607,-0.5009777488369506,,
661,8.0,6.616616616616617,-0.4223091902034601,,
662,8.0,6.626626626626627,-0.3427424767013181,,
663,8.0,6.636636636636637,-0.2691090175773321,,
664,8.0,6.646646646646647,-0.1736385648547975,,
665,8.0,6.656656656656657,-0.0949228673954876,,
666,8.0,6.666666666666667,-0.0083804085643676,,
667,8.0,6.676676676676677,0.0968794249765528,,
668,8.0,6.686686686686687,0.1731977392414644,,
669,8.0,6.696696696696697,0.2723924735409192,,
670,8.0,6.706706706706707,0.3479026366626305,,
671,8.0,6.716716716716717,0.4329294747040081,,
672,8.0,6.726726726726727,0.4992727680230579,,
673,8.0,6.736736736736737,0.5620779548684348,,
674,8.0,6.746746746746747,0.6278090925861257,,
675,8.0,6.756756756756757,0.671511487359483,,
676,8.0,6.766766766766767,0.704447939622555,,
677,8.0,6.776776776776777,0.7497327915053359,,
678,8.0,6.786786786786787,0.7617509307200041,,
679,8.0,6.796796796796797,0.7786752591698561,,
680,8.0,6.806806806806807,0.785553850640995,,
681,8.0,6.816816816816817,0.7767952199625989,,
682,8.0,6.826826826826827,0.7519558822078516,,
683,8.0,6.836836836836837,0.7396281165478158,,
684,8.0,6.846846846846847,0.7144091853901339,,
685,8.0,6.856856856856857,0.6857612468687251,,
686,8.0,6.866866866866867,0.6372510446008787,,
687,8.0,6.876876876876877,0.595178595173508,,
688,8.0,6.886886886886887,0.5476663072875408,,
689,8.0,6.896896896896897,0.5034461934346879,,
690,8.0,6.906906906906907,0.4401268683836008,,
691,8.0,6.916916916916917,0.4055342807095497,,
692,8.0,6.926926926926927,0.3482450172779385,,
693,8.0,6.936936936936937,0.2948107507218451,,
694,8.0,6.946946946946947,0.2499108303809739,,
695,8.0,6.956956956956957,0.2049504137217322,,
696,8.0,6.966966966966967,0.1707879961181216,,
697,8.0,6.976976976976977,0.1302228278935693,,
698,8.0,6.986986986986987,0.1069697147967414,,
699,8.0,6.996996996996997,0.0661808123273569,,
700,8.0,7.007007007007007,0.0604293474141079,,
701,8.0,7.017017017017017,0.0361895568802679,,
702,8.0,7.027027027027027,0.0255766884809399,,
703,8.0,7.037037037037037,0.0051962399913483,,
704,8.0,7.047047047047047,0.0090823918183081,,
705,8.0,7.057057057057057,-0.0012650225506316,,
706,8.0,7.067067067067067,-0.0010694603554672,,
707,8.0,7.077077077077077,-0.0042524869040193,,
708,8.0,7.087087087087087,0.0028095286742538,,
709,8.0,7.097097097097097,-0.0038814744215178,,
710,8.0,7.107107107107107,0.0075988112689624,,
711,8.0,7.117117117117117,-0.0021511659102629,,
712,8.0,7.127127127127127,-0.0134446139451594,,
713,8.0,7.137137137137137,-0.0153289716469729,,
714,8.0,7.147147147147147,-0.0404521829150225,,
715,8.0,7.157157157157157,-0.0462765549471595,,
716,8.0,7.167167167167167,-0.0702030110056407,,
717,8.0,7.177177177177177,-0.094165661895695,,
718,8.0,7.187187187187187,-0.1183760833305964,,
719,8.0,7.197197197197197,-0.1571600256713356,,
720,8.0,7.207207207207207,-0.1964098848108978,,
721,8.0,7.217217217217217,-0.2465004529314843,,
722,8.0,7.227227227227227,-0.2818128632774103,,
723,8.0,7.237237237237237,-0.3328544920131124,,
724,8.0,7.247247247247247,-0.3835579153680739,,
725,8.0,7.257257257257257,-0.4265321721907311,,
726,8.0,7.267267267267267,-0.4822102134460913,,
727,8.0,7.277277277277277,-0.5388789007548798,,
728,8.0,7.287287287287287,-0.5885258253077112,,
729,8.0,7.297297297297297,-0.6241826519716213,,
730,8.0,7.307307307307307,-0.662412699229438,,
731,8.0,7.317317317317317,-0.7045535508234548,,
732,8.0,7.327327327327327,-0.7314173610189941,,
733,8.0,7.337337337337337,-0.751905046078596,,
734,8.0,7.347347347347347,-0.7733371851525133,,
735,8.0,7.357357357357357,-0.7717697360166237,,
736,8.0,7.367367367367367,-0.7848236321607336,,
737,8.0,7.377377377377377,-0.7687354183934191,,
738,8.0,7.387387387387387,-0.7434935812797289,,
739,8.0,7.397397397397397,-0.7179505419081142,,
740,8.0,7.407407407407407,-0.6735113617438777,,
741,8.0,7.4174174174174174,-0.6297893845242775,,
742,8.0,7.4274274274274275,-0.5881662156419815,,
743,8.0,7.437437437437437,-0.523868428384842,,
744,8.0,7.447447447447447,-0.4485197300085776,,
745,8.0,7.4574574574574575,-0.371360443741437,,
746,8.0,7.4674674674674675,-0.2957021811572906,,
747,8.0,7.477477477477477,-0.2053724628180828,,
748,8.0,7.487487487487487,-0.1150688711167248,,
749,8.0,7.4974974974974975,-0.0261111112404153,,
750,8.0,7.5075075075075075,0.0696911140770345,,
751,8.0,7.517517517517517,0.1525617007127674,,
752,8.0,7.527527527527527,0.2509053947505209,,
753,8.0,7.5375375375375375,0.3206810453470908,,
754,8.0,7.5475475475475475,0.4066162608289507,,
755,8.0,7.557557557557557,0.4817898398235014,,
756,8.0,7.567567567567567,0.5475900256348321,,
757,8.0,7.5775775775775776,0.6029851546998342,,
758,8.0,7.587587587587588,0.6555339837587589,,
759,8.0,7.597597597597598,0.7048026882415699,,
760,8.0,7.607607607607608,0.7362887032717633,,
761,8.0,7.617617617617618,0.7590192647558541,,
762,8.0,7.627627627627628,0.772388271943948,,
763,8.0,7.637637637637638,0.7739807057724587,,
764,8.0,7.647647647647648,0.7665271236617778,,
765,8.0,7.657657657657658,0.7607857544877958,,
766,8.0,7.667667667667668,0.7496810615411762,,
767,8.0,7.677677677677678,0.7140786414511248,,
768,8.0,7.687687687687688,0.6866690774514932,,
769,8.0,7.697697697697698,0.6400511107383366,,
770,8.0,7.707707707707708,0.5979993781623546,,
771,8.0,7.717717717717718,0.5582405790360235,,
772,8.0,7.727727727727728,0.5175059440222152,,
773,8.0,7.737737737737738,0.454753415774094,,
774,8.0,7.747747747747748,0.4028707496603688,,
775,8.0,7.757757757757758,0.3559789915553146,,
776,8.0,7.767767767767768,0.3117935629588561,,
777,8.0,7.777777777777778,0.2586731064887545,,
778,8.0,7.787787787787788,0.213760837068959,,
779,8.0,7.797797797797798,0.1711172897122849,,
780,8.0,7.807807807807808,0.1428679395589341,,
781,8.0,7.817817817817818,0.112058121131753,,
782,8.0,7.827827827827828,0.073343018186822,,
783,8.0,7.837837837837838,0.0626691849947312,,
784,8.0,7.847847847847848,0.0380495502423461,,
785,8.0,7.857857857857858,0.0236292143703496,,
786,8.0,7.867867867867868,0.0096925162882116,,
787,8.0,7.877877877877878,0.0007686561251968,,
788,8.0,7.887887887887888,0.00727365940059,,
789,8.0,7.897897897897898,0.0048243121256819,,
790,8.0,7.907907907907908,0.004166335575634,,
791,8.0,7.917917917917918,0.0032144357614055,,
792,8.0,7.927927927927928,0.0021369171411266,,
793,8.0,7.937937937937938,0.001939781573363,,
794,8.0,7.947947947947948,-0.0053360390982359,,
795,8.0,7.957957957957958,-0.0141968380369092,,
796,8.0,7.967967967967968,-0.0132509251991574,,
797,8.0,7.977977977977978,-0.0253732729673284,,
798,8.0,7.987987987987988,-0.0442746427978095,,
799,8.0,7.997997997997998,-0.0622601794846297,,
800,8.0,8.008008008008009,-0.0878754502539642,,
801,8.0,8.018018018018019,-0.1068863448685757,,
802,8.0,8.028028028028029,-0.1479635577026223,,
803,8.0,8.038038038038039,-0.1771718028581751,,
804,8.0,8.048048048048049,-0.2181851695884404,,
805,8.0,8.058058058058059,-0.2792316050046509,,
806,8.0,8.068068068068069,-0.3217882321422243,,
807,8.0,8.078078078078079,-0.3678944402801872,,
808,8.0,8.088088088088089,-0.4197855367102983,,
809,8.0,8.098098098098099,-0.474211109171881,,
810,8.0,8.108108108108109,-0.5252202744186971,,
811,8.0,8.118118118118119,-0.56694954105931,,
812,8.0,8.128128128128129,-0.6158048341495101,,
813,8.0,8.138138138138139,-0.6505498440232765,,
814,8.0,8.148148148148149,-0.7008771656517204,,
815,8.0,8.158158158158159,-0.7242528201749178,,
816,8.0,8.168168168168169,-0.7523665162051206,,
817,8.0,8.178178178178179,-0.7625513902148688,,
818,8.0,8.188188188188189,-0.7792823627354737,,
819,8.0,8.198198198198199,-0.7809901025627489,,
820,8.0,8.208208208208209,-0.768643733451485,,
821,8.0,8.218218218218219,-0.7504777716221287,,
822,8.0,8.228228228228229,-0.728829302231712,,
823,8.0,8.238238238238239,-0.6902665992087822,,
824,8.0,8.248248248248249,-0.6527938627484018,,
825,8.0,8.258258258258259,-0.602117911050857,,
826,8.0,8.268268268268269,-0.5330618301914398,,
827,8.0,8.278278278278279,-0.475784036058673,,
828,8.0,8.288288288288289,-0.3906159859385619,,
829,8.0,8.298298298298299,-0.3019759108489975,,
830,8.0,8.308308308308309,-0.2223185691586717,,
831,8.0,8.318318318318319,-0.134865372062234,,
832,8.0,8.328328328328329,-0.047135092770548,,
833,8.0,8.338338338338339,0.0406230452829473,,
834,8.0,8.348348348348349,0.1423635455755496,,
835,8.0,8.358358358358359,0.2209545546784361,,
836,8.0,8.368368368368369,0.3070199206924203,,
837,8.0,8.378378378378379,0.3857080490953372,,
838,8.0,8.388388388388389,0.4707975780216232,,
839,8.0,8.398398398398399,0.5344063084873649,,
840,8.0,8.408408408408409,0.5958956849210632,,
841,8.0,8.418418418418419,0.6424830606162285,,
842,8.0,8.428428428428429,0.6907057961599757,,
843,8.0,8.438438438438439,0.7336381827448598,,
844,8.0,8.448448448448449,0.7509131063061241,,
845,8.0,8.458458458458459,0.773437000328462,,
846,8.0,8.468468468468469,0.7805510290477438,,
847,8.0,8.478478478478479,0.7805538681339134,,
848,8.0,8.488488488488489,0.7654174276465777,,
849,8.0,8.498498498498499,0.7527530287545894,,
850,8.0,8.508508508508509,0.7318054358950626,,
851,8.0,8.518518518518519,0.7026447158158518,,
852,8.0,8.528528528528529,0.6624384748805565,,
853,8.0,8.538538538538539,0.617823784454513,,
854,8.0,8.548548548548549,0.5713919535384498,,
855,8.0,8.558558558558559,0.5189517419679065,,
856,8.0,8.568568568568569,0.4638041598918669,,
857,8.0,8.578578578578579,0.411098621346579,,
858,8.0,8.588588588588589,0.3738877095162387,,
859,8.0,8.598598598598599,0.3124166140069291,,
860,8.0,8.608608608608609,0.2661121743339117,,
861,8.0,8.618618618618619,0.2249683564115753,,
862,8.0,8.62862862862863,0.1804310326542899,,
863,8.0,8.63863863863864,0.1407045694945288,,
864,8.0,8.64864864864865,0.1249714367688551,,
865,8.0,8.65865865865866,0.0949615088595383,,
866,8.0,8.66866866866867,0.0681028602096796,,
867,8.0,8.67867867867868,0.0465110361784277,,
868,8.0,8.68868868868869,0.0195539527858164,,
869,8.0,8.6986986986987,0.016473653962468,,
870,8.0,8.70870870870871,0.0022711006229573,,
871,8.0,8.71871871871872,-0.0035312512074084,,
872,8.0,8.72872872872873,0.0044820081259996,,
873,8.0,8.73873873873874,0.001767790858036,,
874,8.0,8.74874874874875,0.0032970283703206,,
875,8.0,8.75875875875876,0.0046575346126391,,
876,8.0,8.76876876876877,-0.000740664864568,,
877,8.0,8.77877877877878,-0.0072150315462815,,
878,8.0,8.78878878878879,-0.002092482839735,,
879,8.0,8.7987987987988,-0.0192707763195088,,
880,8.0,8.80880880880881,-0.0283806300169995,,
881,8.0,8.81881881881882,-0.0364215608038365,,
882,8.0,8.82882882882883,-0.0611650239386239,,
883,8.0,8.83883883883884,-0.0838355410538441,,
884,8.0,8.84884884884885,-0.1202935653146085,,
885,8.0,8.85885885885886,-0.1311774595435906,,
886,8.0,8.86886886886887,-0.1731582104946299,,
887,8.0,8.87887887887888,-0.2274875588266655,,
888,8.0,8.88888888888889,-0.2694490413505228,,
889,8.0,8.8988988988989,-0.3020807824760675,,
890,8.0,8.90890890890891,-0.3551877501720105,,
891,8.0,8.91891891891892,-0.4034427207979055,,
892,8.0,8.92892892892893,-0.4614580575271202,,
893,8.0,8.93893893893894,-0.5096482210078759,,
894,8.0,8.94894894894895,-0.5604572252683964,,
895,8.0,8.95895895895896,-0.6089435644825306,,
896,8.0,8.96896896896897,-0.6467405224261162,,
897,8.0,8.97897897897898,-0.6931577983303205,,
898,8.0,8.98898898898899,-0.7134311358625534,,
899,8.0,8.998998998999,-0.7492507152539132,,
900,8.0,9.00900900900901,-0.7675991674540499,,
901,8.0,9.01901901901902,-0.7806548520210612,,
902,8.0,9.02902902902903,-0.7766518601891298,,
903,8.0,9.03903903903904,-0.7683055867983732,,
904,8.0,9.04904904904905,-0.7551218151417801,,
905,8.0,9.05905905905906,-0.7383659455322543,,
906,8.0,9.06906906906907,-0.7005142986316061,,
907,8.0,9.07907907907908,-0.6547864806367664,,
908,8.0,9.08908908908909,-0.6064434398190647,,
909,8.0,9.0990990990991,-0.5493600385256183,,
910,8.0,9.10910910910911,-0.4711245969706561,,
911,8.0,9.11911911911912,-0.4087634797018207,,
912,8.0,9.12912912912913,-0.3229456675059977,,
913,8.0,9.13913913913914,-0.2445444068126753,,
914,8.0,9.14914914914915,-0.162148787252914,,
915,8.0,9.15915915915916,-0.0680004760315229,,
916,8.0,9.16916916916917,0.0141126112898947,,
917,8.0,9.17917917917918,0.1118476189834724,,
918,8.0,9.18918918918919,0.194457535163932,,
919,8.0,9.1991991991992,0.2899159541344522,,
920,8.0,9.20920920920921,0.3667465262307997,,
921,8.0,9.21921921921922,0.455664734789578,,
922,8.0,9.22922922922923,0.5086831608534251,,
923,8.0,9.23923923923924,0.5798172463485499,,
924,8.0,9.24924924924925,0.6325697916837071,,
925,8.0,9.25925925925926,0.6835255023945391,,
926,8.0,9.26926926926927,0.73048169646813,,
927,8.0,9.27927927927928,0.7599013201617865,,
928,8.0,9.28928928928929,0.7673276740761857,,
929,8.0,9.2992992992993,0.7759592492635798,,
930,8.0,9.30930930930931,0.7770665131891277,,
931,8.0,9.31931931931932,0.764705449382543,,
932,8.0,9.32932932932933,0.7549846765368524,,
933,8.0,9.33933933933934,0.7338829049411658,,
934,8.0,9.34934934934935,0.6961382576336105,,
935,8.0,9.35935935935936,0.6679754685873912,,
936,8.0,9.36936936936937,0.6268577074331885,,
937,8.0,9.37937937937938,0.5794508768888819,,
938,8.0,9.38938938938939,0.5224185933176138,,
939,8.0,9.3993993993994,0.485066661343446,,
940,8.0,9.40940940940941,0.4301016148109754,,
941,8.0,9.41941941941942,0.370240089304033,,
942,8.0,9.42942942942943,0.3280246058671904,,
943,8.0,9.43943943943944,0.2800158044841604,,
944,8.0,9.44944944944945,0.2395079025983117,,
945,8.0,9.45945945945946,0.1927358723143779,,
946,8.0,9.46946946946947,0.1593888387516064,,
947,8.0,9.47947947947948,0.1242906020820382,,
948,8.0,9.48948948948949,0.0932003974393858,,
949,8.0,9.4994994994995,0.075225338199835,,
950,8.0,9.50950950950951,0.0494791459084828,,
951,8.0,9.51951951951952,0.0245774766795859,,
952,8.0,9.52952952952953,0.0211674743582247,,
953,8.0,9.53953953953954,0.005729090482793,,
954,8.0,9.54954954954955,-0.0041701086659678,,
955,8.0,9.55955955955956,0.0025087096958172,,
956,8.0,9.56956956956957,0.0077988815422116,,
957,8.0,9.57957957957958,0.005274085835917,,
958,8.0,9.58958958958959,0.0002116648653874,,
959,8.0,9.5995995995996,-0.001414974204877,,
960,8.0,9.60960960960961,-0.0078690403657316,,
961,8.0,9.61961961961962,0.0139724106756946,,
962,8.0,9.62962962962963,-0.0085295301628905,,
963,8.0,9.63963963963964,-0.0239218504637054,,
964,8.0,9.64964964964965,-0.0414228343485777,,
965,8.0,9.65965965965966,-0.0608930499334604,,
966,8.0,9.66966966966967,-0.0742704620794088,,
967,8.0,9.67967967967968,-0.1028244166503817,,
968,8.0,9.68968968968969,-0.1245709009200935,,
969,8.0,9.6996996996997,-0.1668366699459785,,
970,8.0,9.70970970970971,-0.2071123703674087,,
971,8.0,9.71971971971972,-0.244226927593966,,
972,8.0,9.72972972972973,-0.2992280809686903,,
973,8.0,9.73973973973974,-0.3371029961876138,,
974,8.0,9.74974974974975,-0.4003129822862147,,
975,8.0,9.75975975975976,-0.4484682332713419,,
976,8.0,9.76976976976977,-0.4910967903403772,,
977,8.0,9.77977977977978,-0.5368407689074006,,
978,8.0,9.78978978978979,-0.5956361748511256,,
979,8.0,9.7997997997998,-0.6282821611542332,,
980,8.0,9.80980980980981,-0.6841369074813072,,
981,8.0,9.81981981981982,-0.708904674032395,,
982,8.0,9.82982982982983,-0.7389966686429353,,
983,8.0,9.83983983983984,-0.7632007274423681,,
984,8.0,9.84984984984985,-0.7788932895258736,,
985,8.0,9.85985985985986,-0.7895699461760387,,
986,8.0,9.86986986986987,-0.7747980183387533,,
987,8.0,9.87987987987988,-0.7681770682198351,,
988,8.0,9.88988988988989,-0.7450813304112319,,
989,8.0,9.8998998998999,-0.7108758009778159,,
990,8.0,9.90990990990991,-0.66734760110988,,
991,8.0,9.91991991991992,-0.6285528934681429,,
992,8.0,9.92992992992993,-0.5586290224073408,,
993,8.0,9.93993993993994,-0.502026657944072,,
994,8.0,9.94994994994995,-0.4214009703412872,,
995,8.0,9.95995995995996,-0.3454965598219479,,
996,8.0,9.96996996996997,-0.2675132302569286,,
997,8.0,9.97997997997998,-0.179036673235702,,
998,8.0,9.98998998998999,-0.0949234513363512,,
999,8.0,10.0,0.0076018400903273,,
0,,,,71.0,37.98588026
1,,,,87.0,63.99203399
2,,,,65.0,87.45502852
3,,,,76.0,59.90844847
4,,,,93.0,60.70464529
5,,,,75.0,31.85818104
6,,,,98.0,27.55325512
7,,,,68.0,88.21327519
8,,,,86.0,46.05414594
9,,,,61.0,90.14936228
10,,,,79.0,40.73856427
11,,,,91.0,63.75629742
12,,,,86.0,76.43595811
13,,,,65.0,88.12241627
14,,,,90.0,59.40902284
15,,,,80.0,90.7207735
16,,,,86.0,20.09507654
17,,,,92.0,37.07977298
18,,,,66.0,97.32098137
19,,,,67.0,99.56933584
